-0.051218442590819535,31.103053672601163,-8.898211681172366,-6.6457782552864195,44.714436605869714,20.144500006540703,-13.995417740214577,27.801840453987758,31.351049258591352,-14.507591278853411,11.838334837330382,45.91998389116473,7.600719483347753,13.554647043834903,70.6958305155043,51.39675432817983,19.19214700392685,57.540243155192094,53.013663539105444,-0.22841470178042655,23.234451979425423,56.26119671276771,15.273034297101578,16.780414982940556,68.51896463682858,44.99327925377393,12.279632050383478,52.443681424899026,49.22917179750018,-2.69606484653303,23.613374024426413,61.40543613458346,26.321270883094613,31.693541491782423,83.22610386456736,58.41871807028704,26.048130231511198,67.04429810398167,64.40580295268293,11.910654223478748,33.84279475577751,64.70435461161574,25.35934281709239,30.443034634048466,83.01400052443563,58.91953440194304,25.460381751419295,62.94209875663646,58.0207023804368,9.100240961101532,39.838348254967954,79.28341738897674,43.741830143138436,47.078696507958725,94.22355471804048,64.63760384902677,28.892456895722262,66.43261160221327,59.82148074354953,5.317161061903139,27.647285455155714,58.134121303740564,16.214346204543972,17.745787040706517,65.95748266989389,38.78668327053523,7.575206472831569,50.61978774263221,48.96186882444127,-0.8690338439628071,24.282956021854964,55.01659467923921,13.720253620380236,17.023520902054454,65.88714001664852,37.14155117247211,2.1557442136376785,39.999235306233444,32.918898048916034,-21.750519800848,0.45683172246409853,31.426379333737476,-6.05855171769452,3.9566636147913528,59.16802124994996,32.787831128014915,-3.9109188172488842,31.138038395689236,24.99672620475816,-22.639381283988307,7.7680386465552935,41.14320004883528,-1.3806285070724478,-0.6701186628540174,47.181524242122855,21.357956909340896,-8.17145210883476,32.487643404909235,25.068304137717142,-28.936527091798904,-5.599517208071518,23.97543072592966,-16.67684964673851,-10.569599001933927,41.36480016097746,16.76051990801443,-12.727518846903799,27.587619158213133,19.727920458594703,-33.31141200877587,-7.626055641049314,23.313457030399974,-18.021841344213104,-14.512471804854014,32.59315942971409,2.636059692091351,-29.280055645078445,12.752140193404802,9.352086199828186,-39.00813783868723,-10.88684285482099,20.24294540713449,-21.20519219121248,-17.65592814671568,29.38956118550135,0.23893897965993105,-30.323130677835188,11.931058208190265,7.837000010250154,-42.041396260882685,-17.86135876699577,8.830687813399923,-32.46984013712118,-23.54102957387401,30.156711491875704,5.583309584092797,-24.36334355119073,14.351787904792381,5.544313637310253,-45.83393711246895,-18.605185572312017,12.236465392499635,-27.305330148109334,-19.219101155812293,31.02838366291038,1.4245917165806468,-31.238913006186316,8.268541369848855,1.291184482948923,-48.27786728424382,-19.642134246800047,11.221752924798114,-28.952437926347297,-21.025752662927058,29.32428778230158,0.9503212423870835,-28.44644829661587,14.386734557243763,9.531015592676052,-38.48648233717007,-10.024659298567002,18.991451637517383,-21.923955653885994,-13.687871960417212,36.08500652148191,6.274420336603761,-25.55867607879234,13.28841742378647,4.193634051098526,-46.19737473220497,-17.908131051267013,10.95718524089542,-31.77680982382921,-25.702346121016678,23.84066774404978,-2.766519738151313,-27.80983910712412,17.85029198615806,10.481970012014623,-43.928813252286545,-21.885157138466614,3.293860093039089,-36.124354099015946,-20.57437017004931,37.77928420572442,13.964724921189369,-14.924514023843653,23.222108762592356,11.207648083091541,-40.62597156023721,-12.353084951920398,16.59106051135103,-24.769313407801686,-17.483352421398685,29.7388746584368,-2.5665140706080187,-35.03898728029881,3.808444435452074,-4.718977354864586,-52.320601614696706,-20.8568976056399,9.174957961797777,-32.56168423041453,-25.15770826894912,23.990582982499085,-3.2511161498255596,-27.561850228812744,18.882021370166814,14.751782439827972,-31.146812230915977,-0.6725369831185937,26.641197370038753,-16.493116610744345,-9.336394168587796,37.508779976724405,5.702301325234551,-23.526862495583472,18.374340974775734,11.432429400492884,-34.527584458920145,-3.7684282989176374,22.4046826820523,-21.080556263862537,-11.557589899241782,40.38874106291852,15.440592529439707,-8.626076110248663,33.71599510029573,23.162677860305028,-28.18533358467745,-2.04682228450919,21.68252914402907,-23.06765355006206,-15.433063928178468,32.5702035253979,2.601487270247052,-24.296825028727476,18.01363376031913,8.908067334786395,-39.37145202461474,-9.326527842348145,18.241711601549888,-21.91715869957527,-10.26260526922672,38.23395214769634,5.121893331258029,-26.871484908027206,9.887517595239608,-2.692386677816007,-50.60760666666638,-18.7056314155858,8.63979722785374,-34.53129416084701,-27.17938020477401,18.72882881952041,-12.049274537069241,-37.282036697325005,6.40569729290111,-2.568188119568193,-50.12055149786714,-19.023779618474105,7.752670375692398,-34.49751490871202,-24.04036604865683,25.315863898613948,-3.0028214568627476,-26.35775919238994,17.16851055621306,5.359590009539842,-44.98484108041487,-15.976411258026985,8.018235021483212,-36.86062295748018,-28.150407571522233,19.978016247926206,-8.287226513990884,-30.44281806267449,13.893715212572555,2.4526028874086947,-47.52537015180169,-18.444966964063674,6.443958372549428,-35.86340915498097,-25.07508830430919,23.021310537603952,-5.789312380251026,-27.223955472734332,19.433099582143633,11.573385862014446,-35.375641624086455,-6.641988843283123,14.186859169567725,-32.18850977859819,-21.703237591263544,29.446422362355243,4.3420025811436,-14.849088479361777,30.47728321040011,17.072081102774828,-36.17442703598019,-9.957131682875984,13.37457893656348,-27.58190441118896,-13.317557163649763,35.933225861555535,4.370582376661179,-21.272854287837852,21.220031032354115,10.351809050248116,-37.33046839519508,-8.111660993592032,14.103524183697271,-29.048081472870017,-15.776286009601858,35.12164389020356,8.003269626091818,-13.81943909140784,29.071296260371398,16.772394468779453,-31.48934928326429,-0.9482388644615902,23.47050678156679,-18.90920766785418,-7.122763152911547,40.96807988214828,11.474847762850036,-10.092015216172491,35.00743086204514,23.64723957304047,-25.623481425627233,2.4482343368485253,22.94391017049881,-21.58864448813081,-7.4156926162293555,44.765098590654944,17.89739666445728,-3.266912227283045,38.84141240837798,22.611996667649596,-28.80868646187625,0.7061853909959908,23.829848946884272,-18.827422510490656,-6.028169727735293,41.28604651479315,9.853470067011957,-12.903858185742282,30.525974055294746,17.16335474490928,-32.67640914052039,-4.288073651885554,17.50432897048078,-23.32873594988868,-5.405848498364055,47.032965639542766,17.41690704436937,-7.196064869180217,32.964061617152495,18.557042316668074,-27.725086798281573,5.975823060704034,28.97092292732256,-16.71227245377873,-6.738985149044556,39.039018067981296,7.9568788269905415,-12.752128097541119,31.856302522342375,18.22976212852583,-30.929854709193712,-1.3167358155775233,20.207342756583856,-21.83943909824316,-5.52101201523711,45.157442329729,16.348371054207014,-3.4431013290050383,43.01242437985643,33.9934554144255,-9.484479397454074,22.030285635526706,38.70599576268587,-12.478545472414702,-3.7715217459067514,44.4905518882692,17.158423078029163,-2.0910981213725957,39.346799712602156,20.46122077179396,-31.285488257343975,-0.7806629863011842,22.217368342752078,-20.13378928995394,-6.225172971433459,41.849852556233714,13.728542883987547,-2.4520083812106748,44.78484600138941,31.174101402890685,-18.994648347077977,7.700911061826634,25.56296094533857,-17.853492175550084,-2.0969738589089904,46.83373630639687,16.96513105713103,-3.909612765535872,37.3807125665691,19.814301722725403,-31.034498414368436,-3.1153742075203397,15.361744701707929,-29.406647196323917,-16.063963811688158,30.85216535991845,1.4851265796876518,-14.285067297775608,34.39240321827975,21.424235567407667,-29.291366939060786,-4.450880249770691,10.308001973842606,-34.74243972216645,-18.086345570240834,30.259595204634774,-2.788777944388805,-25.058658180326546,18.81343269021042,7.304835084621487,-35.24035047185559,-1.551102445598147,16.752780843147157,-30.549300513762045,-17.902406352675555,30.36812707411352,2.682283757982667,-14.492913491832159,27.97466293477624,8.639968557363181,-43.31785151524317,-15.487027594707858,2.84182233823554,-40.71850180827748,-25.365386707680177,22.038683798279397,-7.694782650033172,-24.18482587572322,21.958331255173167,7.0584201159037185,-40.572294341035345,-9.136382758841677,10.774596209081635,-32.6603165206036,-17.8444520534313,27.2420945983828,-5.727639844542733,-23.520032588150176,23.53623722897478,9.925417124050849,-38.315972039319476,-11.07909128676533,3.4335236749243743,-41.98014911618886,-25.3822979872284,22.24091483708073,-9.831624262508964,-29.744700818130735,13.942726379250953,0.42406801219190804,-42.77139541876891,-9.147398169521207,8.633740505034266,-38.40352469725333,-25.736187927820257,20.17925379279525,-9.541483848062985,-25.099762967366814,19.89906886386801,1.395632730416592,-49.21566460810813,-18.969339573894924,1.7776913708938666,-38.01176805409159,-19.36715516101829,26.297410637235245,-8.307599836159458,-27.707003246009187,18.033561798058887,4.711208371750093,-39.52020699223465,-6.282133951783596,12.378202445724968,-32.24613843550338,-18.09041689639004,26.28488684379564,-4.777839565773135,-18.37456362059442,31.053572707197617,17.25751875976913,-32.11877566561521,-7.263430328786248,3.9449752242637244,-43.49070849370751,-27.240929269897023,20.634409758589797,-9.435038906163065,-25.338127428718934,20.1726479615271,4.683504054801858,-40.35790070995443,-7.353807954919333,9.891713420963393,-35.41307558190256,-19.33657529017202,27.87995726297453,-0.7498359845918401,-12.743346836329327,35.39861016511537,18.828599251059952,-29.85588496990477,-1.780097965625174,10.740258667919619,-36.33566274426174,-18.066498147396224,33.03876053620899,6.489874483579381,-7.563497533450954,35.01906808936735,13.023606789664687,-36.497208670525424,-2.820639200253261,18.833522923216492,-21.18111185314113,-1.7697393958507242,45.218601985364344,13.573740796606826,-2.280177574858112,42.46399916518181,23.702561723598304,-25.073267979033588,4.562228933976094,18.445358148403443,-28.80719892497897,-13.788405638325564,30.830506128087457,-1.2037394687152165,-15.373643994669226,31.939686007554407,16.47551737386406,-28.03476864398339,5.823098394214256,23.90039414633325,-18.089375834301183,2.1321203186442332,49.39006734440402,16.840602398455168,0.07979843881414206,44.3061249156179,26.492879033698028,-20.341197070393026,9.401691469530206,20.909638489727257,-28.19789220728447,-11.516307883725954,38.15179862373581,12.228173661389544,2.481136206009838,50.37416605118336,31.929114355949952,-16.726786715810476,13.700893098278865,29.138834242183943,-15.372380508226403,2.5154323550884072,48.006794449217765,14.507233900887805,-2.2263686846039072,42.25368980762446,24.50950962682797,-21.81230250960185,7.897704519936397,17.53188298259277,-34.48849281273162,-21.30166508192665,25.234570305671546,-1.1990630895137961,-10.307539937445737,35.68657227045172,13.82751042906352,-36.482564243008916,-5.670482768330054,11.87386371382997,-29.038140493423786,-9.057325808737277,35.021284705016505,-0.6099106585248357,-17.837441829123684,26.451167620198614,8.270047380219518,-37.1276470435295,-4.367796598318204,10.136497021780071,-35.610169475876845,-17.1206769894549,29.480303622454507,-2.0533136192406225,-16.054972875636295,28.747797468662277,9.25330678156356,-37.586205446031215,-6.7535025817236445,5.72681215328749,-41.61961896930541,-25.630512063707084,18.324156303893012,-13.707856838247132,-26.114154530952423,21.748417050106035,6.811674154646859,-34.82716790252979,-0.03589368500167467,14.23878977143384,-32.114672276458265,-15.243415578271641,28.139315902198504,-5.9671661917117085,-20.63422534256934,25.221134044125733,8.939732425929622,-33.084489938857054,0.9365552938607742,12.438415252896329,-37.977130485792216,-23.81338915317104,19.62234163871001,-12.062981441397664,-23.285062281260334,24.187846109588786,6.285309146848222,-38.28867598461646,-5.0326409773108445,8.73247939209229,-36.81054279097509,-18.29043146430143,26.221107897674642,-6.799887977523902,-19.657873173682503,27.202400369621408,10.251139011461989,-33.030448871097605,0.0863967458347048,12.71683229750284,-33.2660172664582,-14.295358603641432,30.489438701918996,-3.3919500666222184,-18.735709597188304,25.052304703916185,7.100749722818076,-33.65229326454706,3.2599500038095535,16.983678371843332,-31.58132858080526,-16.128530344242684,27.886199869925065,-1.9068034375835978,-10.26045680642148,37.93786364101855,18.444525616664638,-27.819615338728,3.914812919360628,16.263007256097865,-29.175618265667474,-9.482063266245918,35.67019526732275,3.596626854555634,-7.879454861283428,38.743400219377484,20.791077783019645,-21.862555721773433,11.995716353694643,23.082032771812177,-26.00895811957671,-10.44992431655325,31.879637858885054,-0.6512952832664212,-10.553618368089042,37.658402083361196,18.87448404150945,-26.875608016372013,3.7503745872166583,13.412467944210086,-33.24290694071257,-11.612733623159835,36.72251174490891,7.041446937152049,-3.8417104035078484,40.43524150410756,17.314704664467172,-30.86619462646016,-0.8132454834612304,8.998321308589178,-37.49063543157937,-15.882361501573616,32.874044267699176,4.9915651098475315,-3.695599461771243,41.553525967224424,19.066783880960262,-27.210642916584757,5.761212577204855,17.564406353730945,-30.73866703981876,-15.392866939413842,26.439275749823878,-4.1836790122333305,-9.420191672649587,42.64940576217029,24.108787135066752,-24.809327639949913,1.0636548862719053,7.137639823459857,-40.38408053824912,-18.810063723759605,28.13767282365498,-2.3388702515919775,-11.573247795084846,35.597237379073825,17.128158788888424,-24.44145857052466,10.26570111149072,20.882727335708598,-27.046613113155164,-9.564034050556607,32.03634485755603,-2.2782321707101545,-13.1423029853997,33.48514942449728,14.082422712841973,-29.090193672541336,4.245511810625075,14.566566289860027,-31.292735753629728,-8.425968109725174,39.9508653487699,10.328824333393333,0.44016190057320226,44.915453554631654,22.37077886857407,-22.229039837820356,11.656403772268828,21.953374306611664,-26.479715374414468,-9.060426084231029,31.987843894977402,-3.981570082411171,-16.700391098494507,28.248931452128062,7.986208563585384,-34.147022047479915,0.6487841072509859,10.063975134782305,-39.56234592970744,-22.375327571360717,20.747745591564936,-9.760417180938912,-15.93439248806655,32.69829192561941,12.06599823142582,-33.15174792926925,-1.3119078357441438,8.180802669948662,-38.610736100135085,-19.2803471249656,22.092441011287924,-13.541722824301448,-24.277740422669275,22.932668023147443,4.357688607882034,-35.539793400871666,1.7876439072149957,12.99779867676613,-35.28182804988657,-17.49641032798777,24.19774130868211,-8.97695403167996,-16.870436700191974,30.60166899780679,8.57298812448713,-36.457053157701864,-2.5691981912207282,8.989141028696974,-36.194736087874205,-15.863893309833925,25.812861306073287,-9.718130808496568,-20.91537790650772,25.346191039092723,6.591797316008353,-32.77314408601235,4.827045933059146,16.29914920726135,-31.657731128994854,-14.327123290831516,26.8492624799678,-5.240104907686572,-10.932163842791839,38.14051983326038,16.650282656832406,-29.055346622603455,2.044569555392563,9.462747147890225,-38.19427269170808,-18.291220708569668,22.49674898772534,-13.128171546068522,-20.63976675103278,30.8951815657661,15.344216540641446,-23.93132116403209,9.870514114077938,15.663760874112562,-34.52952858386253,-15.349065748053869,27.458924020482762,-5.350650713773714,-13.666345252258978,32.96216136790961,12.641537487971064,-28.72167971408991,5.5331261175950495,13.054574175705028,-36.550534315531024,-18.675232975438803,23.097186844813635,-8.057362918692785,-12.318630798123962,36.66024289103149,14.316176615570695,-30.256289959204185,3.4163162287967594,14.132392070343883,-29.006363471369788,-5.860590676767426,34.75719442424748,-2.887383708978618,-13.905268795226203,31.728558166878962,10.583961567040575,-31.060466945333165,2.471177801097319,9.557529263587549,-36.58304782953873,-13.057806311135785,30.951098744129318,-2.253959040036378,-10.688386422697125,34.69335770437817,12.811267564537392,-27.91137790336831,7.948244207650987,16.006852593013924,-33.72428682310994,-17.51730936341233,19.548409323988896,-16.91238095035092,-23.247952892130588,27.78988178414734,9.352812485717983,-33.963850239455326,-4.336598939420313,-0.14393521625526517,-47.26302144191461,-23.28597764870063,21.831284500009637,-10.99032927434888,-20.46974601428937,23.611949307173408,2.113128821173799,-36.28211019107085,2.331654410192346,13.393860776786141,-33.238073802465394,-16.50078657568872,18.572405847206316,-18.45200098108478,-22.87589423916111,31.247233669381107,17.479812188788955,-21.40342969772015,7.8203795900188915,7.1761064785433035,-44.051319304351736,-20.707704571426845,27.273936096612445,-0.42013865886659474,-6.025436805730593,37.43228987886865,11.31497695886559,-32.412980456825565,2.655713388786051,12.888994930512911,-30.414227419229597,-6.445672790418914,34.949137355696514,-0.8694365896489025,-9.08967682788338,38.38534398651278,19.843484870826963,-16.660943197006873,20.55004394524021,26.2751866717568,-24.604204436363663,-6.782276730462328,33.23308405025638,1.8711875286989574,0.3839623142184738,51.6558982640851,32.296091005693796,-6.825838633192811,31.05277598617768,43.76806082199642,4.353458038847702,33.90011039819235,82.99104588462146,57.71157269647851,61.487641437186134,119.24610834236933,106.75645668348672,71.58726288714858,105.83578881487203,104.44128097824944,42.386407722212404,44.452474908715274,64.24615142735507,11.397736662735692,-9.513423795926078,24.914165592213244,-7.886139496071102,-56.41715288995597,-27.34433643488577,-25.69160181654335,-76.59839669084968,-58.3301535857036,-21.838030041919087,-59.87452915283684,-68.37211561760606,-23.462838131335563,-46.321694554046545,-84.87709084000961,-46.410601204206266,-36.88681601340649,-82.81493941518362,-62.66210259568187,-25.16909702564776,-60.30495068229108,-62.73007913195982,-9.595414561901325,-24.48437299918497,-57.65539480836866,-17.89557739211274,-10.374370334702105,-58.76783319464363,-40.30241415132752,-4.551563015002635,-41.258637716811386,-44.36103237739438,7.8462694762539975,-9.676827859977085,-47.30445933411409,-12.893476741315569,-8.414140589698683,-53.60404903819425,-26.005040762762924,19.981061871243856,-11.080217818902149,-16.134052597749722,29.187982366609994,6.001498617334082,-32.55471552135455,4.689881176758785,12.424992071133943,-32.308302859759806,-7.951568831778813,32.533562922281554,-3.7489452593867476,-11.61924952117117,33.27287041010821,11.093236367080381,-25.523075055479044,12.695537591422028,18.635237187334212,-29.320585688519536,-7.65831144292439,31.702998618085132,-2.5969821609621917,-5.677171428645316,43.66346228044445,23.708144284711647,-12.83190290678189,23.032174666241698,24.769246915175028,-27.42379806301202,-8.571841222187098,31.185025169606238,1.4216477851823157,4.427360859965998,57.449083860323064,36.43781331677518,-5.686630392918127,23.87130292473949,23.04723968667063,-27.25414054192735,-4.542087629277704,37.45539965268068,5.50509612182611,2.2587850830102996,48.07261625463676,22.889560645458904,-17.518242624847232,18.087250199481023,23.434965268193366,-22.935348568820025,-0.3632818911140667,37.144758513476994,1.030733831588666,-2.2613455153693938,45.85835031048934,23.111644725092447,-15.553483883160203,19.69400064999684,23.116474774755055,-23.829925442864138,0.5202620743081994,40.431024286710226,5.608270200261657,1.982498043242935,48.629820025799305,23.938674205140536,-16.905803936027297,16.361657646370126,18.33370824906412,-30.055407261749096,-7.254977451751866,31.628097904958153,-3.108422560874878,-5.330885147853674,42.63158494141915,17.995371864797352,-22.95404697538026,10.229560099845376,11.930902554866757,-34.87220499418733,-8.725577866253493,32.167287458560615,-3.0537229532413015,-8.2190666876213,35.07157153524532,7.571882333077772,-31.941527595800142,5.306752723996581,10.277859676293051,-37.428816439599444,-16.393170407190762,20.69818388698387,-12.29987422817889,-10.04725110627499,42.00308906732532,19.571772366097054,-21.406847837401322,10.77525138817398,12.205395778101574,-34.796541231005335,-9.877102586540461,29.834698056426937,-4.689968854945075,-6.883817703407248,39.56875700610665,12.48094525407384,-30.119001847074554,1.8849942896576017,2.5966508384630185,-44.27769493554163,-18.58488672318599,20.596283453701314,-14.133620438042175,-14.325896145482927,35.23269092806894,12.24079325273478,-25.601767183975927,8.86232639390834,9.244233603313974,-37.8764001151378,-11.237434142726837,29.171208266761386,-5.633204611921908,-8.71110905087972,36.592339993231604,11.21970006295469,-25.509568948688287,13.141671671571018,17.679644946021362,-29.33392249112905,-6.722976928070182,29.627335956153473,-5.042161106274904,-2.8580321461326488,49.46367936020793,27.812188619131543,-11.198929816808587,20.38196616772699,17.835517626644737,-31.009645363760264,-5.2436667756470925,33.50525088236713,-3.6022204024815068,-8.806310405249736,33.98909825086607,6.7047115616638315,-30.08215787048793,8.640676927355496,12.350764396076281,-35.77617414630836,-15.62625559216507,16.87649246786038,-20.356335202194796,-18.736306179400536,33.801438559686716,13.902974908201564,-21.52537585431756,13.187985210795741,12.51816155324748,-34.991712341090384,-9.324569728812346,27.826251874639976,-9.733542020127722,-13.395910114116978,29.988178400279217,1.1356823393353679,-37.27659878157296,0.10063443516339277,2.6824517188996877,-43.56870143701226,-18.802687096366892,15.845849454689075,-23.429259940906583,-25.223002232846184,23.86755995410902,2.0522863668615052,-31.355136876141486,6.839969544716276,6.565402845560186,-43.57506153851619,-21.620347622453167,12.028957007492114,-26.427715155133104,-26.975959873027858,22.828799058248315,1.713260710246292,-32.44966355239427,1.8916256143687704,-2.839049367524856,-54.06435844687257,-27.64380502630526,14.991473083753885,-15.11997169885099,-13.068438213913776,33.07104353310051,6.246664202983933,-29.71109228422125,8.619150781568369,10.452001874749147,-35.816788688704136,-10.234195681506522,24.595307484697127,-14.9849155200239,-18.49999741224609,26.652978836470922,2.3596795034006277,-30.313933390621067,7.512461058724398,4.885764747059419,-45.53839982532359,-21.549738396642475,14.78568836904595,-19.767158169265382,-17.572900907364243,30.08296003275761,5.275436710268897,-28.41105656792466,9.54472412026876,8.240303332206263,-41.39720065661973,-18.96678170183298,13.75052324969344,-23.900235468284396,-21.627991687100245,28.43945049981008,5.0730008092394385,-29.01799836449269,7.9269278089522,5.879161310310224,-43.23259160523346,-18.88011139568207,15.949383059185816,-19.728627760753454,-15.69338886740246,34.92828915778729,10.98775900219239,-23.861112059754547,12.122972069999069,9.263639684710734,-39.33471502252405,-12.853298698799303,25.274217800060676,-7.230404074106204,-2.8199031394809566,44.423876762933,15.746976024640455,-22.139772009982092,14.59935111193796,15.510697476768135,-30.83202620184617,-7.061963208660346,24.300769844012624,-15.48950615114709,-14.496805819628333,35.060337593436074,12.05377896427785,-20.320607357710376,18.839112541852646,19.102417768268012,-27.247678354202854,-1.8131001307784516,30.449435487675046,-9.024406916694325,-7.189064951655832,42.82323182132342,20.017827889564863,-12.777836496526827,22.679495285457026,17.04923292528712,-32.40895122242691,-6.533819246247358,26.73195314256061,-12.563434094150402,-12.290391303729292,34.966861915772625,12.341284411471417,-15.793798107091748,25.072353978038574,22.317962874305735,-27.72184015146357,-4.841938723897513,26.595454019741634,-10.748155232940405,-6.051961463222767,44.40991300319351,20.683719805898548,-12.378961584434826,23.230582493755513,18.01809403213148,-30.37843109335411,-3.265110752319636,31.420371187911392,-5.389574822495803,-2.6626370969452324,43.630342161617165,15.799640031441301,-18.296136969592215,18.96218518633283,15.689711397206576,-32.069042938056825,-6.546197301502993,25.08649222316927,-13.581446607407504,-9.73358012889536,40.202024357458654,16.802618348216903,-13.77570120021371,25.308121303037236,22.059940826562812,-27.231983694494097,-4.048798017397107,25.24260594951661,-14.602967969516058,-9.546592740513915,43.36298242866977,23.005595113042588,-5.9844200875815945,31.345868079039963,23.965655451460368,-26.128174420350938,3.4361091171445644,44.849390471433985,19.888123606259754,38.976226858651216,102.51726583580859,91.67258285790533,74.81123402570017,126.6033728787623,132.06326307448873,87.36384899853773,109.16698751028767,128.3847288885512,70.79386877062913,52.060873803422155,77.55848550143722,32.20121864852132,-16.05015387223503,5.876493955232295,-14.959875854540385,-78.67137640466049,-65.65918178993624,-44.10562389998139,-90.85769208521627,-94.5308288034698,-53.429025367053995,-83.64570131771357,-115.61331712094888,-76.94145576582562,-82.98974516909463,-133.87999825980788,-109.5917847629346,-77.38510620716062,-111.5778248133248,-101.53594861756662,-49.39535218273367,-72.57924968480114,-100.48254727073166,-58.70569350689213,-59.37268802808258,-101.74929692650126,-69.53239594563618,-33.63421388648226,-68.78780721166862,-62.697831885953036,-13.986749326062014,-36.732330093382096,-60.6568653790956,-14.43588030360154,-13.196384339832473,-57.374669960392914,-29.077004898174202,3.6636263551158077,-31.774653175014812,-23.813073268138417,24.76343674019097,-2.4060783136221104,-32.31398100705387,9.424386592777648,9.00956132272986,-34.05617143061528,-5.3592768180702635,24.015914053738378,-15.602469173370192,-8.312298290067055,42.95283095560675,19.298795122181552,-8.65438024767743,31.520451330395158,26.830243579904035,-19.531061790017112,8.292246310490576,37.19026313053816,-3.632560192586382,1.896180333316206,50.80393619934818,25.244761496541244,-3.195005435324374,37.242112645896185,33.10610341478303,-12.286089862649689,16.846502784295883,47.12019808094738,6.658702179004976,10.652185762812696,57.02862113872363,29.747315923059936,1.2297062165468198,42.01821715706847,36.92081436026528,-11.111681319955562,14.070979629876682,41.07909817674166,1.3494553622194267,9.369735563103216,59.08200496425265,33.57265065457271,5.90986152059363,45.779357056348516,39.02636899046966,-8.9998249201306,16.989909909328876,43.29033066546446,1.5179175800442586,7.440859153317284,55.979282172830175,31.271209954709686,6.152028590892449,48.36046725779007,41.865898924261145,-8.283481136202184,14.8765608796633,39.50508215959703,-2.6163831139635505,4.218250255270593,54.65676378636184,30.452099751620047,2.2029950431993477,38.23790488543367,25.984389907946344,-24.685124201626074,4.399303098475457,36.971975882160265,-0.29977370215096855,5.4932254246578704,49.88062492958715,20.64468314140849,-6.544495870510541,34.986465799780184,28.368638795714002,-20.197972881992545,4.958050094655281,30.306407625736203,-11.682177953589477,-7.058238673889155,37.37336155068798,8.406917605429093,-18.671965559835293,23.580156282975096,20.237035746574634,-23.420688469527878,4.659989492265172,29.375574697241422,-14.652556730753382,-10.203492685582518,36.49639713742044,10.116905635795414,-15.876183507460592,24.540439925480005,16.068017081494133,-32.59626777441491,-5.460065562542503,21.868991933967326,-18.274753391214876,-10.58158314700898,36.22572384623756,7.025486129394448,-21.453347083984855,18.83945386648993,13.4513441404519,-29.634725395901746,1.5420581284137782,28.660315102727907,-14.883129597897874,-12.393817995881225,29.864796664371482,-0.06735445511164784,-26.53121734269789,15.120622100811069,9.962158082769827,-33.48656280302528,-3.6123221179906935,22.46605269242437,-19.83198636380527,-13.279760977684305,34.84299718775478,10.348972326881839,-13.92099714391305,24.29590966675086,10.612929476356245,-41.33870021041953,-15.049223925382158,12.773801964277123,-24.474375666399112,-13.410758210411704,34.39506779120248,5.399489780937763,-23.02106396917594,13.997463736471651,2.3571734878985833,-45.536322037296955,-16.477067989046734,10.876675433129165,-28.543524491895592,-19.982749813514026,25.172106273730606,-5.386350787897488,-33.404085833226056,5.468950903409539,-3.406817353130533,-48.75796803917853,-18.918660580848396,7.007068024091186,-34.7662610714668,-26.467021639539343,22.293500500766477,-2.7392275352687,-26.609202926235863,12.545372529986203,-0.18387511975833348,-50.13804349544181,-21.508634783209352,8.037878905253354,-27.3389958403364,-15.159956159317943,31.210947813844548,-0.14173380704098193,-29.854414809090184,6.370775860128063,-4.637268563809776,-49.34636791661014,-17.698879227223124,8.747194313759294,-34.039774990369864,-30.067748403827384,11.453086158113877,-16.547272546244088,-34.8588016291021,13.418175002357145,7.0891183480371325,-42.02889574950596,-18.725383608045096,2.7131733744782163,-37.43010067441384,-24.859047352147574,23.574388915306727,-5.611575746414335,-31.16138374747208,10.168997342457583,0.9948280018997835,-46.182690137432296,-18.752604753581593,4.973346092226485,-35.34160992677162,-23.732334411301245,23.658056013709892,-6.13225012993799,-32.12701898313704,8.363518076387166,-0.24322939263022647,-44.56015482201874,-14.687372289116732,9.538228888193505,-31.03002173729773,-19.91433900202877,27.11765715385285,-1.613446960385268,-25.433503135475323,16.58923632605766,8.561809683076449,-35.630174107384974,-6.569595470954717,15.396812198036038,-28.221904118690176,-19.4614736073382,26.357182214010972,-3.3496004678356748,-27.861009647494374,14.560435930000658,8.143901336123761,-33.30689124201857,-1.8160061354235602,19.938400585507658,-25.867831050154496,-18.392232530603614,29.29069125171302,5.328651542707691,-13.160755428189058,29.503209776088568,16.90080864500812,-32.2480593472869,-5.483053757881361,16.631054299253805,-24.966754303023308,-14.163071453417741,32.88364388903863,6.336071787070798,-13.309819887028324,30.62390134385069,20.81396383289173,-25.720526191941506,2.097131802646228,24.031374183086797,-17.899987504008728,-7.0808708560838625,40.59172092845971,14.888410384222462,-4.2497966936967995,39.6039450567858,28.177256841738618,-21.954717528502005,0.5680873854183481,16.05768110666587,-30.271249921759768,-19.034455417670237,31.994729458610323,10.821266398302562,-3.71044950949128,41.54094953687698,28.517222365391838,-22.356478683128717,1.516783988982528,20.886778172120433,-18.860152815228293,-2.2710847626489947,48.5575396841504,21.594483275501524,-1.2192129780617087,38.14363240517976,25.169933099992416,-21.416923872602027,5.745562113693367,23.172796792896836,-23.851459294683995,-15.425018174337275,31.27005414548716,5.765821108850785,-11.655923072266416,33.00997730362385,22.238028575726965,-23.56773760256533,5.701557124614929,26.857813997034405,-14.67722134701198,-0.12336877249010136,50.05871782746014,24.634813045604716,4.858267965297723,44.33599512296325,26.93060168239643,-23.712445541243504,4.052253859936716,26.693055225326667,-12.945576250142114,0.07592832847128506,44.899337463324876,14.066598924330005,-7.458746798621812,35.299848025614544,25.080889828417472,-18.441832191923247,12.296580006602518,33.660115166086975,-9.142630176209487,0.36987672054264564,42.30187559424307,10.246388958353188,-10.223235463073355,34.672432866472356,25.297042107601445,-19.300893695015795,8.624260403317468,25.77952485385244,-19.69280778017945,-9.437433003096368,34.23175772251563,2.801897071422758,-18.812360531990265,23.016688403938094,11.831591958244143,-30.351079752927888,1.8258749973017636,21.629080422771693,-23.6417775579638,-15.30707982133645,26.342829380727157,-4.694441303179133,-24.305545068833823,18.119006409599024,4.581268399281479,-41.132069998556254,-9.77283195429834,13.355574038391838,-26.60921344711332,-13.781795496726094,28.951872884499195,-4.572906562999719,-26.083711215917965,18.207483780369298,8.865543857305788,-33.85677340723576,-4.579464848222113,10.780107782756824,-37.09372286974554,-26.88466044781909,18.6511634455714,-9.163810306742167,-26.396949748417487,16.634002100967216,2.785784625715614,-41.4973745453806,-8.860111015463838,12.63940091294173,-29.30464651109434,-16.167171420127236,29.781211229770165,4.149989262190015,-5.513567542594299,50.633111377555224,52.63459566972101,23.062116309831907,67.2017344016816,98.08911717170383,65.52995580657526,87.5492920673384,137.15234044613234,103.4934051625223,70.18717955460276,88.54705457081283,46.335900083107404,-23.97956914574926,-12.193630711194455,-6.401097874675552,-59.40043592275498,-54.9476925970108,-18.99857347302918,-57.26098197863513,-82.62205739393724,-46.34647691077383,-65.92116265734312,-114.49521308193653,-86.03633391913351,-66.67607566794416,-104.37575838875019,-82.92028498971288,-31.292727289432467,-57.32620433885616,-75.23351575880973,-34.83784177712962,-50.13387071712031,-93.24366182672973,-60.636014217816225,-42.23254842592544,-86.57873451309723,-72.95339232910959,-25.736128682621864,-50.74647589496243,-62.20161026349192,-13.903439989368637,-24.71527797017245,-66.60310255295045,-32.9651853172055,-11.709386223965275,-50.82395071201899,-31.615760948639323,18.123133707402083,-8.130235252238066,-23.292126685690214,19.89159444394966,4.338754427553933,-40.91867677693752,-10.57015459077454,7.166669198323513,-34.63105872878235,-17.500840019651385,30.675155416780576,4.256207714246475,-9.826593321787925,35.05402235924595,21.945890874407244,-20.7834972531946,9.944396196272262,24.761962204237797,-21.26361569078931,-6.389867087395338,42.90605885563602,19.7749612269375,7.871310815661687,49.90817934008774,29.113499572414785,-20.264147002099854,9.768781092103989,29.59970373054601,-8.956788057825271,10.183602312267958,56.24027180147683,25.63074651742142,9.065225357330041,52.83730742484037,39.17977614107081,-2.7094417770085517,28.76667088745586,42.44224310984518,-5.120668222234681,7.606042723018788,51.24622320892448,19.912040391150164,1.1875419423883478,40.710813085441735,23.617774603037955,-17.851729581689177,17.6266105089123,35.74524620276104,-10.327684658042333,0.9554911149662555,44.720017778634364,19.31304871902317,11.017162384193188,58.8659082716996,41.92549405615958,-7.618494249175482,16.918199887936495,28.162960477033575,-16.86269286262948,-0.08460263652308164,46.20692202545705,17.817745750969152,4.512398388036062,49.24579181491721,33.54639590839742,-10.051772850670698,21.738126638715634,37.92089191694791,-4.81637721593987,11.869982346755062,55.679110501607106,23.80914303209411,7.359256623978604,49.876849696908465,33.363103283032366,-10.394749238596798,20.092795090770174,32.851442823288615,-14.686409014869579,-2.1951115789637825,39.59341619781343,8.162236386232284,-6.382551981040482,37.222885930302766,20.05101652480279,-24.253126427785517,7.235328652890473,22.553717531949587,-21.37269450804351,-6.149070727595291,36.086819885444015,4.040064960218995,-11.342583601509189,31.035046878804977,13.154765348189525,-31.53764040489145,-1.8095750912389477,10.898037976593347,-34.14755553733025,-18.03074169573997,26.345007256372227,-2.2818208019058304,-14.322544926869611,28.62797581959201,9.065640073318333,-36.74128795298045,-6.684205731018103,7.733184909651782,-34.196945464733595,-15.437312901596169,28.46364585894962,-3.7966533316126494,-19.502713568805145,22.698570524855235,5.1501624699261175,-38.13043667553532,-8.105217715190841,1.5704202547368464,-47.922207621685416,-34.9243326649447,8.49140297679164,-17.978044024143944,-24.081037878400142,26.70552716442654,13.887403529813216,-28.36082632205712,0.7008813543880805,10.63599648992056,-35.51889340675292,-18.634139925370327,25.403718962959353,-5.139838587699309,-19.41248253650526,21.544579375432818,1.2173232905490377,-43.84060049457046,-13.647940534870811,-0.7634166146513852,-44.10320611289699,-25.630186430140043,18.66627023280916,-12.016499387093738,-25.685730745594633,16.593147868490504,-1.4471132514411433,-42.22703274908235,-7.133876442617016,8.331156316673964,-35.430092011408306,-19.630112645404477,21.056479283025965,-11.225126584696937,-23.09226529217135,21.96204342801309,5.172466689005452,-36.34511509221561,-3.6596754736761987,9.007352490394537,-36.63948499283053,-22.417398621491607,16.255505708134848,-18.188387665260358,-31.885929892052573,13.01257849510137,-1.6222292166042003,-40.47930950339034,-6.299647363839913,7.111510825669001,-36.75628273853071,-18.38118964056663,25.845424055332856,-3.532788139465797,-13.792491590874523,31.324727167980406,13.229996181690598,-30.356451685298467,-0.023931591233623095,11.23238611966042,-32.16662628888933,-12.008866861469754,31.112718441274872,-4.0087437670143515,-21.88039578545192,17.97922094310797,0.854786687928021,-35.09287119951115,4.151654410809634,19.602240350905447,-25.83500855857372,-11.66618464093455,27.013335057968643,-5.6426470689943535,-15.581345806210468,30.904615112492394,14.762331413814405,-25.574101744560238,6.699320191958545,16.664917960117215,-29.724935365537576,-12.382326299376494,31.036046153328485,2.383798801753155,-6.104282861472007,37.816500153569265,15.595030705314716,-30.71224571816333,-0.7615793913392253,10.804841745687888,-31.574482825698887,-10.344725104040382,33.83528112981623,3.0566802525637407,-7.485917912215625,36.11002103652625,15.542963415272295,-28.19664601545872,3.0908535614991663,14.108588560118449,-30.166833181062657,-11.739646485789272,29.795765730289702,-2.790884810128283,-14.445980825584648,29.59081213956931,11.545367890934045,-29.50821037157384,2.730374870426438,13.867356873592026,-28.990342064884636,-7.521480739168776,37.48789693039085,8.307694092392367,-0.2761542409704085,45.31008328095644,27.110897186504115,-14.682787072964192,15.429122783139086,22.19917382890317,-24.315013082890072,-3.796370812351004,40.77821821553786,10.579618329893234,1.0887898829426297,45.640040008627544,26.713670147470403,-14.838435976399872,15.750276113706732,22.189500122730685,-26.763489055266987,-11.065044555011351,28.867065854233903,-3.3553456603556455,-12.610738212042158,32.74309612577839,13.73851159312612,-29.048984143889513,1.074124968567812,10.844146640104448,-30.610179639787532,-7.354609425817072,35.345836993302186,0.42439754089683746,-13.421237012355927,29.23649562997328,10.841647483992565,-28.510614485122744,4.779832087337439,13.304974395491161,-33.298251587358905,-15.089958020508647,25.05776575963101,-8.894240129782787,-19.462728443599236,25.365560347055016,7.2557047665829515,-32.5879678461755,0.040812742747665,9.758190329984853,-33.43839832074154,-12.952880425356147,26.880722867536136,-8.68534777820382,-21.686594884636992,20.91246275882053,3.4313407026971916,-33.063800784533974,1.3821697691841202,9.07032827330076,-38.163970676170344,-21.528887836289748,16.480799719551,-17.23367579523663,-25.563509987106745,20.959990244068255,4.20258788284057,-32.948260731251445,1.8492548038627987,10.43449911907521,-34.57909360800902,-12.72036516280214,31.596447071511378,2.7693823317098847,-3.405917951358906,40.55429579372148,17.425659151821907,-25.45982532156475,7.119578797154535,16.805030467465926,-27.024995388007866,-8.272796377634673,28.729788425507486,-7.190304341065275,-16.612391467592904,29.04520350424943,10.955282306360026,-27.436558654941827,6.271472068059889,14.439527136259796,-30.799073805635153,-11.510969827538066,27.795924617082356,-4.927088169077777,-11.200436374336423,36.48874433565731,18.903415725829976,-20.64551048381982,10.050868612482365,14.313381920559642,-33.40204342386598,-13.889626506426541,26.8932405959719,-4.683917852431037,-10.710519023629992,35.26723896282438,14.528637442024518,-27.568902694479227,1.4535377893831267,5.337670064804517,-40.54639573411258,-18.787406141924304,23.097061916352907,-7.8407656604428055,-13.342742804704006,33.673513601838536,15.513179890062366,-23.064110849074922,8.632662615079393,13.09033215979833,-33.831647402872306,-13.352250711019584,27.178496503437835,-5.390928744516199,-12.583786764850274,31.9632891487231,11.043247842418085,-27.303353822625887,8.494759971098155,17.32567569835422,-27.82895416899531,-8.742890008859423,28.22614554044356,-6.1499791174291225,-10.652020239940013,38.87770792599313,22.259134502658053,-14.431397620951723,19.10368265404457,23.69349839057643,-24.784230173048833,-8.007002874523677,26.567275293054752,-11.618174885464665,-21.931608253294023,22.76696928511404,6.092765894202513,-26.143059899648264,12.909412984034866,20.312579161514833,-29.33228448543375,-14.247882521450533,23.519011729768646,-5.052618206834868,-4.513498704013615,44.117803696991565,21.5341616132411,-21.717054462326736,7.8986387070253095,12.220530671990424,-33.15010449318284,-12.175883158690452,25.091343668851017,-10.911343326131508,-18.218568347180465,27.376673097192075,8.05819592042859,-27.29717305825582,9.56526482030695,16.330263843197905,-30.182712485577742,-10.086861610997756,29.473016320275626,-1.316326138027577,-3.778629095380941,43.72015267509199,22.66277448590709,-17.61763977873538,13.52593356940772,16.468299807041713,-30.940835491444645,-9.84884469356832,29.98987532301899,-2.650693500310073,-8.739440668138355,34.2888225180668,10.72547492182606,-27.617460777809065,8.05215042876035,15.009362575979381,-30.26118198313759,-9.757952180750086,28.079494442571573,-4.549300699460577,-7.75262830024,38.67587602726584,16.75728563252386,-22.448576431172988,11.281532145336875,18.663817063098882,-21.311523019604614,9.067350433948967,59.22258506118455,39.18350659578354,48.5391781112179,108.66923647245802,102.06016611059837,77.85366153504677,121.6159409722867,128.41580268518814,73.18798499183504,73.79328599643694,84.96872688164541,24.35895516091142,-2.915225021427113,25.716024263347663,-8.667119367324037,-57.06693794749917,-31.994762798318945,-35.681259117630965,-90.36840959333902,-78.44405456827431,-49.53693102319363,-89.81573876611358,-96.53565277021104,-49.5179316419111,-68.12958376600336,-103.199256155274,-68.21861476608143,-64.19312112009744,-110.19945070571468,-88.10559421341335,-49.41496919504737,-81.93883603966476,-84.2528650208515,-36.09737806813483,-54.36365891150867,-87.75454638465555,-50.41652241558659,-44.974378515773246,-90.18562151118829,-66.08539636779541,-23.38180063933963,-50.97224242226208,-49.49099013125661,-0.5378193848380803,-20.71375598257763,-56.31345002127413,-20.40295540304397,-16.334874914056837,-63.28409491802774,-42.019857618179266,-3.177049788086423,-32.479770999366416,-28.586278190734355,24.0659691558959,5.71500304272975,-30.62118247750714,2.2629741366473404,3.170143183264676,-44.03126537475529,-20.12766107666111,21.715870797578077,-6.994939197923639,-6.488221933265765,40.64837530100172,17.882638040557836,-20.400505715931182,13.802689839017859,18.61793089081266,-25.915097292818487,-3.6110147642720225,33.39417696810698,0.5141810173044412,0.829701710673139,51.20890308595747,32.084746662794686,-4.75071882050136,27.22068010271784,28.153859185394843,-17.412167189000854,6.4132737602586545,43.357657745929096,7.911573960862857,4.6489185228699315,51.63557912146193,31.397109955417655,-3.213126660616412,31.38352268768383,32.235601958525635,-14.932066512056213,8.642439807605298,47.52845682728693,15.114797580578083,13.871657173348954,60.489531958636256,38.46967452961529,2.886273883468249,38.86325582657707,42.15037614146556,-5.326683629843352,13.862766789002208,46.655907800277035,9.02282734824335,5.217807501963104,52.45735744567435,32.75883750692065,-1.1249077101652691,34.35188927174255,35.68469450538203,-12.722054594408736,7.337243969500392,41.87687533197122,6.541794929894117,4.319359980516371,50.85018210391754,30.036923488269874,-2.648905401114682,35.726980771975946,40.22506049112283,-5.3782498290688565,15.639988631521442,48.96911050376314,12.16829930511098,8.901721351956407,53.76695501245145,29.90496712164279,-7.769947414838962,24.328046067982164,24.001288285110206,-22.854243859501103,0.49949239933655676,38.255203836487844,4.9901571377962455,2.0430437968285737,44.67678522807573,18.967151716755538,-17.33259005019542,19.042631261540393,22.711028406243308,-22.39920814697001,0.5628988923901375,37.08074872996389,4.860396174671294,7.136261869744309,56.146010274439405,33.363150342373956,-5.548454196030066,23.362183509200413,18.626235885107327,-31.251024764235517,-9.07815108940578,27.72609221218348,-5.5896608886990435,-6.514832029697544,39.388823693827774,17.039177779526412,-17.685431388541303,16.385813821053393,15.39194540608899,-33.10620069150305,-11.387628612605582,24.529171765316477,-9.30055235823935,-10.735532326383602,33.99301917400183,10.777641474064515,-22.48479047475117,15.123757520565412,17.7519187851366,-28.59976958471549,-7.929060964495365,24.268717105445155,-11.999214619665992,-13.210122479797214,32.15621062832164,8.778297793441885,-25.861421366226267,8.817858298811675,8.029904364797405,-40.831025806195505,-21.412240719272052,10.414989942594772,-25.325466807685235,-24.580948001738527,23.51050161729404,1.8858136953890465,-32.76149857294707,0.9857180352354398,0.49949220605901967,-45.12471549749037,-20.55507238408444,15.34193375967375,-19.589980677334317,-21.01508953254521,23.910938749422858,0.5268695550349882,-33.152354081850774,2.504572772905121,2.1339858442399287,-45.230928758068394,-23.777429230045435,7.668092257987821,-30.59965749548217,-31.921529519587523,16.274267693660732,-1.3643098515109777,-29.19862537611962,8.660010730155058,6.660699186841102,-43.40539789614745,-23.26216384096577,10.444251364856061,-22.793122931412682,-21.47943919831338,23.433188923127958,-1.504585088973755,-35.506748258628676,1.6908117021122955,3.88503552240444,-41.84653983529295,-20.627260171142836,11.03648115428442,-23.987551599059202,-20.67040923499824,28.603263469375754,6.4837500682914,-26.970906035267614,9.70039500604203,12.161309434938355,-30.581232306666607,-5.630278490390852,25.98099144290527,-13.7770097776039,-16.90378372081659,27.620090437197113,4.783464479102735,-26.29624854781867,10.822714469102582,8.033155469411321,-43.70249337308749,-26.57572801747002,2.614888719065039,-33.107999367549354,-29.69074264933075,19.311841143834275,-2.4026762948192157,-35.31762822713504,-0.21508617773060834,-1.0137863796396998,-46.16433037003215,-20.528219454247044,15.583646492467757,-18.271694584965413,-18.276351358987306,24.778965639093702,-2.3217922171626313,-37.15289256551308,-0.6935335595101719,-0.1732161719385834,-45.629089268588494,-21.684343754079983,12.401920306861339,-20.89871731314635,-16.581633543172195,31.730634895288553,8.354645040803614,-24.517453909534908,13.321734914630607,17.782469445756334,-19.26096721300997,15.005988094641943,58.11598061285446,32.738061104342506,46.07432816608748,106.55291238916587,98.39949788613654,79.58046322262163,124.33933504316298,125.15096467877319,73.67024776234736,84.39477039918495,96.9340678648784,35.76827522620957,10.919220261639929,34.88780974023577,-4.253315780914029,-46.47845771312309,-18.24715016236204,-28.111827790873267,-82.79853446552335,-66.22054577706268,-39.530257282718296,-80.21867339287343,-83.16945061949554,-41.56290202227262,-66.7961027270365,-95.22021306698393,-53.363305613084094,-51.416290413007104,-97.80127444704162,-77.77008420915917,-49.158662350796604,-84.2395376250669,-77.48027400728132,-26.163557714125588,-47.347945058856645,-79.57108288500753,-44.33360292835708,-44.92939245199898,-86.69850058954435,-56.42527619799732,-17.941895802116306,-48.669406881404804,-41.95774778820841,8.755133264471873,-10.832376145513743,-38.00227845302861,3.143472465004006,4.953893725717752,-38.87785008674816,-14.489835842413264,15.365319430115912,-22.94177915341965,-19.822011542838197,30.275773590203606,11.281387676622522,-15.979554531294454,22.264905525537106,19.796386366038583,-25.630877680351745,1.8388160889859968,38.49026120395419,7.065903631992057,12.234438548527049,58.1872799814532,32.51649053455873,0.03630858917798463,36.22221045172523,34.32057322978814,-11.024904935749717,13.222971752774987,44.36647349958486,8.497262756479497,12.460506359928718,60.41801935907548,38.41583597125097,8.859951655501678,45.10956064272155,40.91589512520846,-6.340809638280451,17.513868703912763,48.8224997365772,12.745580025177869,14.958634749063425,59.12184785457953,33.551216920708725,3.2007339206315226,41.10060607425233,39.49128462590433,-5.630405823457213,17.841390354099605,45.88265180538846,6.998031237837356,10.291926859595552,59.20362646626485,38.8753888017483,10.754774523238925,46.21057730845442,39.01422391203436,-10.685797953276474,12.252594770311857,42.70508372464085,5.784245757894535,7.829277481331189,51.705379690306444,25.558333544907846,-4.943555984202433,32.46477711792033,29.45485613626677,-16.635972079985102,6.307579733517006,32.561245292961765,-8.645185756333856,-6.436368229079575,41.94604624569071,21.687114281736456,-4.477693392258774,32.581002549920385,23.933161460763124,-28.43229794887482,-6.901753623838552,24.218379069272864,-9.123836388135029,-1.7524870417945717,45.75969200497643,19.77220025374355,-12.787330229929871,21.82809731114591,15.339118890501814,-33.98161527216161,-11.309489904691425,19.31740573107695,-14.637126357629164,-7.029617022205317,41.0931767117054,15.635189119866865,-16.36379217236406,18.8719850924479,13.993553682053749,-32.6563258980034,-9.25580985689593,18.023302993016593,-21.312022411850585,-18.14081095286364,27.983324049345775,4.007829010782322,-23.732561317620473,15.250330314473338,11.726480343541391,-34.51171892562486,-10.446227947167305,16.94314640337793,-23.26375302363187,-20.9247993836429,25.343983569302466,2.2009808471120635,-25.06617411132326,13.410611929069571,8.520905150425875,-39.35723231035742,-16.088012423091865,12.19681159940674,-25.99214623167549,-21.819629006413287,25.73217164002201,3.904866690757153,-22.535811716192676,14.370008300333573,5.689020962007898,-45.414413070601846,-23.497148280797155,5.5241193940506035,-29.061290802621784,-20.913583274053433,26.74471360909748,1.946197430416344,-27.058730556273797,9.207051471808793,2.9614295834850672,-43.30050102627945,-18.227112480178285,9.79857893186196,-28.651693280879485,-24.930257763628155,19.96181447570998,-4.279311835228828,-29.440561854344395,11.457508217400399,7.134667825627327,-40.7680570310109,-18.800291833388734,6.533538911728614,-32.90193907486507,-27.783167750445795,18.992107184192573,-5.001732289123005,-30.34213778169722,11.805172533723763,9.590402457182089,-36.54393281950803,-13.633122189130876,12.208121365228596,-25.634621889345212,-17.354005887800582,32.718498912292105,10.116413023483227,-17.674690900390473,19.000965315170593,12.40692811496233,-34.96991869359462,-12.36516778393056,11.838046120524172,-29.173100015961403,-24.503841878125748,23.76726598209966,2.539631539672948,-22.546418782422915,15.747067416277403,10.088415232534496,-35.076306582987556,-7.948167476354481,22.23293669156302,-13.823435910927316,-7.360568772310112,39.08556293540428,13.901959245144404,-14.828927698935775,20.716407098832583,13.273193075571337,-31.204386038678066,-1.8690042139766554,28.986290734495416,-8.433552661089806,-4.668528427476961,38.648887639150566,13.122090427692537,-11.182561886592675,30.175740540101323,25.038721182352383,-22.073937554964125,1.645803541380154,28.124870876599555,-8.535507196399994,0.09385396242435107,47.762061292482706,22.7230335081611,-6.061468804119501,27.939087809006296,16.729487792835837,-33.751415303050166,-11.91661510888959,13.119360340171577,-25.072423822138692,-17.59333479892475,29.45215010700585,3.377719835567415,-25.795941656196717,10.39773967519086,3.911789535668097,-39.64360036271148,-10.23052526593893,19.4777822075024,-17.681960940117296,-10.168373345152858,37.98184439095051,14.800583829238407,-11.361694293371116,24.58635829543094,14.099089265401831,-35.52930648988821,-13.000792162562039,11.284270659066124,-28.934075815658893,-24.835201199703445,18.40925437647984,-8.701125725582841,-35.81712547417901,2.4023541477050863,-3.790643292506708,-49.15760386174531,-23.19541322550378,4.197048517283415,-31.863516283595803,-21.34870953821322,28.842958622658855,7.060887969815898,-15.63443389415458,26.220675069614582,21.295085429513342,-25.39267587359503,-2.589348624639772,21.059123519315747,-16.966771415828116,-6.655414342380315,41.26251063359001,12.281814802601037,-22.001298480487144,7.57922243796239,-3.7416432954811985,-47.7784592027465,-18.126943710699095,9.9599290504144,-28.352589083041515,-20.816024913448565,27.473073677397018,6.107218114256357,-15.912866677906111,23.987035520519974,16.905966449696145,-27.947203564169804,-0.3874433842923324,26.17535588510475,-14.18491061795769,-10.310653423668816,32.959584516223025,7.098403579981019,-16.221725253259525,25.029741685913642,18.263687650699712,-28.950834591328004,-5.295519749298791,18.273537669765233,-21.13199588268287,-12.681195188998526,34.92835816564116,10.735449090829253,-14.14073665036876,22.54468539230341,10.676975130293522,-38.95390027516402,-14.616682502063469,10.995080585658183,-26.355976715535668,-17.108277427821154,29.272524321775443,3.4003837755945057,-21.378797913872315,17.96920197130587,10.737848123002298,-34.52436942705865,-7.955766032702481,18.128600994139134,-20.163855166280232,-12.802972301380446,32.832072733434465,8.44027691148267,-13.324246957831662,29.008657941171084,22.111973807541943,-26.85800124218838,-6.637499097049988,14.169387235281652,-23.663016009454445,-9.873674549509378,41.69288643705032,16.939448902052128,-11.068170375162088,23.959306818629894,14.896185650260028,-28.762409757492428,-1.0475487826885903,22.02137081399565,-21.001639620979663,-15.796788021674962,31.035991454634633,9.19020039079528,-12.59740496799343,24.880759495864815,12.415864441540336,-37.04842915312774,-11.78556529572447,15.735679588769848,-18.43276717451534,-6.585006020720963,39.93332784699142,12.241979976874475,-14.8847960802692,22.113327226453244,13.761517365161698,-29.917431181079934,-2.0301291585614187,21.195237519756418,-21.595001631243257,-17.364360160332133,25.04325959181829,-1.6577564498610862,-23.628095365466322,17.19038385231634,8.275805152108289,-38.73012549359514,-14.891921483018706,7.207935033636444,-30.491773305420605,-17.89049558537138,30.80773333718153,6.635553864008871,-15.386530151128776,25.35413956615848,18.644202003712923,-23.94004537095337,4.378218992458088,29.25873447778338,-5.153692290440155,15.640283263256626,77.75532372463483,69.21942832025545,63.11449882863516,118.56081391932506,124.61558792671224,93.6314967427054,130.1507765470597,153.00332295510393,100.3561543015089,86.89213389409662,105.83515390709567,54.581173450065556,11.155778996933432,33.73889968356535,8.826626231608675,-51.593159159640194,-39.22153691552658,-28.213954607942142,-76.64179508422052,-74.161000459849,-35.83906544833174,-70.24691576681059,-100.85696288244432,-67.06055771499635,-78.8475460542071,-123.15494099048645,-93.95319488197578,-68.86772076862812,-106.87282382655133,-95.10180541866873,-46.46670223329272,-70.17257043213749,-92.30881111062116,-54.62577913556358,-65.95831701271743,-109.21668814764831,-76.13266652090462,-45.369256708157444,-78.90207936263519,-67.4004853362935,-23.7072962823987,-51.361752555653496,-71.03932728005626,-24.701421839866235,-25.563308621662554,-62.07339605879268,-29.71249278440549,-5.040153884428058,-43.557698543998875,-31.927340187691964,15.877437781265876,-8.249765314059058,-29.35014583012466,10.848994117080391,2.858285092912011,-38.988352314989825,-9.350399655085404,14.192059742636198,-25.7014464265682,-15.979822310361298,30.086509955171508,5.121898448723407,-15.22558255973775,26.184240213923452,18.57465936714368,-22.784023514043355,7.320486603039765,30.129737998220197,-10.482085350753824,-0.6722318256169117,45.129884058569885,19.685172535466542,-1.2820006850160808,37.990645451118276,26.956145504596435,-17.244898231558693,12.052037980742444,36.814380414769225,-0.35839147718745323,11.25000303069206,55.82738621564451,27.99136348106603,6.1988044924750705,47.21225864761638,38.93498991466663,-4.615934377689804,21.389913140313226,40.73245031784678,0.13490410044115464,12.82228037594052,61.313863268683434,36.527059004181076,14.619392364980804,52.331684932964166,40.364804432371,-3.9317152452446322,23.109866557673286,41.62818878787505,-2.2695166921107734,5.7573186218450925,50.24217724255083,25.77244473132089,8.309393246350044,49.21997397559089,36.65351634244881,-9.298203947589817,18.078262716323067,39.876893536814784,0.5667615676303299,10.552281183877454,52.133194938736004,22.30305060268013,2.0279124005109037,45.92718969314234,40.26344154080962,0.21153840366528343,29.98804388073588,51.26055834701862,10.151676126779526,18.695554875205104,58.50159477284338,24.307510740385496,-3.0052965988115767,33.35932024567262,22.29582151285602,-19.938903885757558,8.527629321932235,26.691125839470082,-17.634871387612762,-7.746436647983263,41.07218563434856,22.22041325129041,10.092590282543048,54.250017984608654,42.24705247437021,-5.628804096222673,17.13785036781266,32.98387999701964,-10.548136159083356,-1.2798955313088278,42.919817602029,17.16605794383478,-2.439061534875244,34.586963618556155,17.404018824698205,-32.87204488333041,-10.286782150386847,7.490616548714995,-31.551809779784453,-16.749267136794174,30.59457091289503,4.870148276138801,-14.41019881532555,25.544853793379737,12.91382578861674,-32.64570797832345,-7.206939965496709,9.733399178802536,-31.72054598081059,-17.827917178973284,29.92150417028207,5.507280041861845,-11.972110737539683,28.518981542793007,15.759468878745444,-28.68162156413439,-1.4079718564080679,17.11739079853851,-23.70499047497669,-11.728724977891742,31.93578309147447,4.088711493944938,-14.749298688875676,25.69550910578709,12.626932552376843,-33.52198824684184,-8.441487644546937,9.353499612175836,-29.90475566946389,-14.372163100654046,32.94658819346357,6.136778419515059,-14.333449490273873,23.90070887845359,9.820613652502066,-34.52535035950139,-5.460372613687692,15.203193120343341,-23.945252172306866,-10.476640666196634,33.733180797394596,4.4982579126487465,-17.123060094514738,20.505342290433397,6.5863529648036465,-37.176676697601955,-9.06161231589723,8.432409351218325,-35.47903208003111,-27.552500857457062,12.771742683783136,-15.803424825610398,-32.505883768211376,10.85634432645573,0.11669198801189928,-44.39493531266319,-19.729465290640327,-4.580031356945057,-45.99616002816015,-31.10531667876309,15.564027858522943,-12.029910639031367,-32.603080859868314,6.333889634026587,-5.084724502016426,-45.02814486831965,-14.08094259440262,3.6615185493548275,-40.0724044500875,-29.449228184074773,15.220866492300129,-9.17289268710774,-23.168501473529695,20.79417441247757,9.882989807252617,-34.17079556362381,-9.718398524465265,2.819994812943769,-43.03990167967835,-32.65978994746803,11.887182936932916,-13.762185982622944,-30.64975403672987,9.324398078865421,-5.315442929058772,-50.65386696276617,-23.785891021268583,-6.292327707714511,-46.52993002497049,-31.658917561886813,14.398314996827915,-11.829786146424912,-27.583536819112503,17.04087076155634,9.417830406512868,-28.346994315834365,3.2178533311497297,18.99878374116934,-28.12564445587313,-20.911930819433948,19.894949873779517,-7.528376433709276,-22.521488432373243,19.212309494112755,3.141822448716745,-45.349811925590316,-21.96503347492552,-6.6963235151724785,-45.72615601216339,-27.939148607861288,19.291073521269595,-7.589860082734813,-25.660663475189327,14.271669806251492,1.7351298037690412,-38.55158344594301,-6.3097477312505,14.37644939719745,-24.72906183474641,-11.249617750556862,30.874084892950947,1.3165298264880327,-15.816738951248652,26.527536464446108,14.323762070222127,-29.250488242059138,-3.377493786151099,9.94365410297736,-34.159359657508716,-21.96759775989204,20.656742241452754,-8.149311259507801,-24.32707829783273,18.784117619638124,7.417248209593504,-34.461181079776665,-7.1732319060377545,6.45722136833492,-36.78840837487743,-21.92270133295037,25.50062760006552,2.773250415006867,-9.847093185693527,31.795747319911126,16.499778460330468,-28.10375637573011,-0.408563079972712,17.119031847370845,-21.049919862127975,-3.720664085038665,41.493630115014334,12.97009629221014,-5.658841369039333,32.055485438419765,15.05196132697137,-28.685501966167948,1.5758998180886579,20.200346903826674,-19.710349604463175,-6.245874590664428,33.80360687909366,1.8297567002467439,-15.075040973049322,29.257403353828906,20.82550644272813,-17.054243607952614,11.968959080769622,23.42635873247771,-24.139154543754483,-14.178161115648805,28.869527060402046,4.677633387415561,-5.542051639212623,39.54685486640126,26.61777527592131,-15.867969402090797,13.133674489927458,29.40052806912262,-11.917717673218064,1.6274979251645263,42.93765005261747,12.651793577562627,-3.9680007033243108,37.26126762519493,22.705043974008674,-20.54366932747441,7.056132199056538,20.20255092711352,-24.686160051734916,-13.128187817969259,28.338933841591054,0.5657102268812366,-11.792251439264476,33.690560776373474,22.93534221162495,-16.561607556053318,14.745543308319583,32.73744695817125,-5.756051650825498,10.778968985960852,52.699198588216944,20.350191445897885,0.009657007781443738,37.28744924343159,20.987509844719042,-20.75499248667726,9.890095411313066,26.230806722520143,-15.073501713460562,-0.045462080178138464,43.28825127359988,15.636312332079292,2.5993182750062185,46.55596875068167,33.23551065361134,-8.890296942283051,20.10754571465865,35.697086123777034,-3.8057786916307137,15.161410400295201,62.577422301817876,38.224826683651976,27.437902202436348,72.30977231708623,61.1045108793781,25.519524250343668,63.69524345223646,86.93099686089977,51.061354348520354,67.26118482712818,105.03624701092573,67.07709453461084,40.4808545804589,67.08189826710591,35.09677225741979,-23.08343597838134,-7.2175536989180955,-3.9257494470565772,-56.16873013019912,-50.35223384489953,-14.918776185643955,-48.003465136185966,-64.47232575556208,-25.14318067889001,-44.604930228681,-90.8726768930794,-62.98006976150744,-47.426630341162465,-87.33549139793179,-70.78091024863161,-28.360512583468804,-57.83955415898649,-72.15360398739338,-30.08141921104422,-44.109324579842436,-83.03124220395883,-50.04518278668659,-33.840371459303164,-76.09158194861875,-62.779061182281254,-21.803421608506937,-48.892120502781495,-58.97103497818463,-13.820616908528203,-26.232440994124776,-64.45487421832459,-31.230047042393725,-14.700925439828994,-56.400215652047834,-41.93776513904917,0.7767322168608555,-24.43216032769039,-31.953395517553496,15.463000948511702,1.723256626111766,-41.954372254161036,-15.079359174855378,-2.242994604103614,-42.873682482531365,-24.317635674973136,20.259712057969182,-8.210411947090417,-22.099368521517285,20.165576152914028,6.2218099413837145,-32.81734279789625,-0.2322816110814081,16.35861748504104,-23.427900382474668,-6.798198492338928,34.64940391903429,3.7208923673924694,-11.027558605353907,32.33736985970896,20.443515891537693,-17.94745669938208,12.439549551753931,24.188873075152944,-21.42308294182014,-9.09340116662347,30.915349554637345,1.3833759783279866,-10.282405042467925,34.93546402677214,22.477767454478283,-16.738926695126672,13.05054591134067,23.638893847714176,-21.870348119455667,-7.220243418092233,35.99269888567779,10.469579146445646,2.4900312102163005,47.65994383010858,31.03948368449329,-13.640506961803363,11.813918174720957,21.56043393459155,-20.643685484586403,-1.5160713317175585,44.20323152880338,17.51552378373834,4.197225078232319,42.78033627846605,22.926478725203488,-19.81814862939327,11.264492495865284,26.660484310238637,-13.661635630576441,2.5916602145402194,42.71542714383165,11.776970497949096,-0.6649682242598148,43.17128414418765,28.84163045329257,-10.753541869498846,19.645980254650404,30.5978172916362,-13.985253222842736,0.9927414734481879,40.697546465371644,8.6566067762309,-5.204485961385512,36.42904487616221,20.342059752733753,-18.66103518713952,13.548739381312064,26.115022661869894,-17.443353714343782,-2.3576863589138846,38.29723255805343,9.308965483693473,-1.6258102272405097,41.00368273102981,23.122620902787123,-21.24609987128199,5.340446183809561,16.660639401194683,-24.189333345326762,-5.560544414565021,36.82800247536138,5.951404740295754,-8.964833692822706,31.5208262030036,15.642235609568953,-23.18914644719591,8.746205703948029,21.595306669070368,-20.918437700700878,-4.815786453734834,35.65578700838667,4.746990489520577,-9.557722204826579,29.503772659765144,11.664250683475702,-26.132198355104084,9.83552400992906,27.52485938182759,-11.713250214258128,3.7652071233449735,40.72380025148206,8.08126035026064,-3.7079983272135744,40.02765681188073,25.047016104152473,-14.966421972340445,13.847525223442116,23.164637902159356,-21.677038844957192,-7.331016306547456,31.39666675627735,0.4422992964805239,-10.794513480950496,32.45028474192524,15.911972823960966,-25.556725464362014,2.9582907251701727,12.596171135850268,-31.27637830663227,-14.498817783823732,27.643194515453448,-0.130749524600553,-9.550175098200889,33.33659314048634,15.440657230275052,-26.2045883511078,3.7360865405224892,15.521193509246073,-27.75531132556933,-15.036976118697323,19.38276688173486,-15.263021658496104,-28.78372495691913,12.283413849018153,-5.385724532038196,-45.61007123802376,-14.205117288991136,-0.2810163076180543,-38.54392175157251,-17.59146123412845,25.11382273252474,-3.800448962036562,-13.742894217535113,29.125009730230204,11.455552205558305,-29.306286523717645,1.1357054287883095,11.997080313134765,-30.706551289114742,-13.261745255830574,26.220623827269407,-7.027601889592681,-21.727775278292345,17.026460984954483,-2.238257528555069,-40.944272035485525,-7.38487370948663,5.2875740653051215,-36.850593484954985,-19.906245243620077,20.496888217447697,-6.705658029298121,-10.95868286155996,40.37502308224496,35.60140281074558,12.531114968056851,63.214351242076816,96.90998353686312,79.20306807453719,119.77693926801065,176.94283313724526,153.54188142219203,138.52511101476125,167.1951767286668,131.32032596802708,72.55130989298962,84.57410081062304,75.1830506245213,10.605315066706886,4.9798063464639775,22.622837528617765,-27.333341630327972,-53.153627666556396,-22.889261537977823,-50.5123050587915,-99.36788180091003,-78.9501056506493,-79.93624974808888,-132.05030636964455,-120.54435182820163,-83.21544456385719,-113.61230120164998,-123.30195247931275,-81.48982686967625,-100.45586579172357,-141.54615269686013,-113.08251661176601,-106.05165780687277,-150.65280317454724,-131.38881495562106,-86.32764870205618,-110.32750497539112,-115.12094946200553,-69.85404669607888,-86.09337851247223,-122.60606053495246,-86.84464958406971,-72.28553130737612,-111.31995194933327,-89.02312467006276,-42.90083058161413,-65.35404870185987,-66.11107465576129,-15.403808541026512,-27.12940900732799,-61.90886040019687,-27.326258413122222,-14.70391602694894,-56.032603943808155,-38.43511253705625,1.1811131132568757,-27.432775044388265,-33.702675032751785,12.92097834858198,-0.5757322506612574,-35.96890934377888,-1.5242907783255077,12.524721241042426,-24.771697994687763,-1.638570127945771,41.655440461024426,13.588922437893677,6.481519066584597,50.98360212862367,33.81566511352811,-4.886527225170363,27.229080666449228,39.45090277398093,2.0582335306083053,26.815173969033893,70.37689614819324,38.889914870524244,25.253701944475857,63.38384915022052,44.50001921421833,9.46066251343081,45.81721438840445,57.88036841306826,14.401466671312699,29.109239757759394,63.85314518668186,29.234879477439968,17.712232941062396,59.98280334054255,44.696701061543834,11.231627881658591,46.741194238724724,56.26979246815756,9.870506228522428,23.090098157717406,59.77248035216989,30.917492650071004,26.633042524332534,73.57811673979846,57.63905026380645,19.51010689330942,50.037336059844044,57.079800441282046,12.040208918204888,28.301995853850194,65.0936785087622,32.61306621566758,23.69366861687589,66.91763185888749,49.62647076173076,12.977697253139631,45.86807613473222,54.42430818212529,10.201044525261004,27.399116252928366,65.5542015127187,34.035114207624574,24.777917058738684,66.74051799941489,48.16806492957747,10.744438707317025,43.222928672506036,50.32678074898506,2.5152774888341476,15.284302352257514,50.27387096276772,17.974901761940593,10.18657967110446,53.51256997573777,32.911567484990925,-10.41872734507581,15.849569880650488,21.20415281681992,-22.58403727172127,-3.2968166304812776,36.26723759491996,4.402179636067121,-5.533894584722694,37.28163693128511,20.92491884990826,-14.767883455866318,17.29997941977877,23.319307700356326,-22.96635535893558,-6.429215724337711,31.97929950133251,2.1784173958049706,-4.461981136075103,38.59189017175682,18.807209667793245,-21.617459753506616,6.838450747677317,11.95944251638296,-33.29252295255376,-15.907449700532677,21.996062120591738,-9.615099089774134,-18.30711952912151,23.533015680182963,4.168162189484088,-33.53639306271647,-1.1323114498275402,7.251158379270273,-35.81811520172254,-17.32636366208735,20.969817496943712,-9.480313356870571,-16.50189171036398,25.35533081560842,3.7872163938396604,-37.100096395909006,-7.228189067228136,0.7318409982887366,-41.08296094297758,-22.161046242015683,14.254871032793915,-19.576489274512397,-29.478582092434987,12.629461022429126,-4.404555880184114,-38.75625982266892,-3.6932149191838555,6.605512668262026,-35.306507332043545,-16.986307415034247,20.561751698506686,-10.404066590297184,-18.025355127491654,23.029329810437684,-0.09635333124947465,-44.1410692101518,-18.144733749909047,-12.417765411729691,-52.66482899052512,-28.813849867966663,12.161640519989446,-20.250809951526875,-31.648493684892852,6.550781458504549,-15.067828919205311,-51.56111152151649,-16.27281967098705,-5.031184380308923,-44.80036505564226,-24.177008945638082,12.806722904843653,-20.69495399695564,-28.830729852900046,15.762584443673735,0.6070434168714698,-32.93520093927587,0.7421122267876328,7.925937605305196,-34.578346809131986,-11.186356399356407,35.73527504979728,17.4012702458915,26.743714441797323,87.95185091193257,86.08135160985658,63.05622583174931,105.02637186851362,115.8802231389918,69.72505193745431,79.7125162982403,101.65696521628439,49.15139357703509,20.162693530795504,42.85068848973351,5.317178825057113,-49.59652241687136,-35.49254876141818,-44.57252424090813,-98.90898327966362,-85.67577249961444,-50.683755093350065,-83.95761953407673,-93.39819019387974,-53.4135078630662,-74.89018639634537,-113.94070369754559,-83.88398714154032,-78.6935000777087,-122.41182901237536,-101.11783262475616,-59.00721603752889,-85.15739588910452,-86.65100096019644,-39.76473836007291,-57.36912777255681,-93.48913876360199,-59.05238021684039,-48.192011906543776,-86.32028469389046,-62.322727690065676,-22.175177183361708,-52.85858736145578,-58.967452361227316,-16.031219348131806,-35.48903918245304,-70.69408925404004,-34.56595152148678,-22.343808677601512,-59.32297621647298,-35.809697909351065,2.147916919145297,-29.58796444272361,-33.69660139943571,14.234165564309802,1.3330695475567715,-28.72480900568031,8.656035922647526,17.686806154721765,-25.230946780232337,-6.539653208293588,30.090346079566256,-0.6001620041517093,-3.136595172360738,44.89453805558099,28.57939556235455,-7.686093615999017,23.784705334247903,29.45290514618548,-13.770509300171472,6.6769805255361465,45.1421307187444,14.746713873726618,10.737547677780352,57.432821723343515,42.54428626780897,10.283113821770645,44.92531599016696,50.184795572926014,3.414372833215147,19.398676045222217,55.02406393990764,23.98064894829438,17.75034535327889,57.69534789639226,34.3864070836904,-3.8013109974476755,29.441958585380533,37.57914906007662,-5.9504719238039705,10.341044477994814,45.087592533539926,15.191021502712625,13.53570040297162,59.86374842873922,40.67449312404041,2.8671756013780882,34.748353070183775,42.016918070735755,0.19304921432172506,19.54421856664736,53.39630403948725,17.902537101319336,11.30485543683601,56.777205175493535,40.561701733525304,6.885080164361552,39.52197833954524,42.6015205795393,-5.272138727803139,9.931109832325658,43.964764797641166,12.757265801935315,11.265077670093806,59.283580736574535,41.242184468145766,1.2651895015073809,26.16536969862164,25.412509992983864,-19.851663469778096,1.411553498886935,39.88078798270662,8.366230318941762,2.013191402103577,44.101585688740656,24.37474273321424,-9.965088126346272,24.89010496970229,31.762923800736296,-12.049927653972627,5.341748007205851,37.97863075049116,3.113361954418991,-1.4379396981291555,45.02038361735947,27.312969522325965,-8.815591925475019,22.269332547967075,25.74673935155569,-18.905111972880974,1.036704298456053,37.97653466812065,5.450629295561107,-2.301805691297543,36.13410919089229,10.453525776665865,-29.756516714873012,2.401573601949906,11.29347243406618,-27.434994782633098,-5.047559306342052,30.75255653012099,-3.7271828441280803,-11.3576900271224,30.75846672230479,11.482892217259211,-22.58931549910754,11.516304316682287,16.57254676144314,-28.553688667046615,-10.742436786422932,24.148456111443373,-7.516274519459714,-11.468356898147736,30.87015156708146,8.874331561541176,-27.04057206641091,7.585430102774488,15.40006838825776,-26.26199382483022,-8.03737588426437,22.351882554085137,-15.584859177231774,-21.905518796653432,24.404484899337277,8.912210488367831,-23.454957635342105,9.487985703936957,11.212619715142253,-36.98198280454596,-20.097483279043608,15.640374380270217,-14.840533654552406,-17.054862947653625,28.34738118876124,8.397681137758385,-29.339725675974474,0.732503941217665,4.04925467527188,-39.981327355382966,-20.098488754801288,15.679665537428765,-17.083706966180184,-22.956206793853532,18.916195421586913,-1.1423367806797327,-34.0294870065473,2.557342258704246,9.883356673413024,-34.40676640478419,-18.87217272770394,11.63529030225428,-22.690008893407196,-25.16011253139368,22.07140564335394,4.933758492064916,-29.939024506640642,0.8357382950494419,1.7506633379077652,-45.90571203087633,-28.278012273223762,8.512892835372023,-19.380768149157475,-18.09570490484058,29.541900182918035,9.898052575958241,-28.86600433292195,-1.3807753988820757,-1.283614242347629,-46.29761270664908,-24.704891205550354,12.754644883326105,-19.94358058739077,-26.650699239025883,14.323774353341435,-5.72400624184213,-37.02208116162091,0.8001551477364011,7.267585657308093,-37.93791486349066,-20.99556712945889,13.140248026246475,-16.08576055227759,-13.306731687124314,36.918622048583764,19.302406041627464,-18.782960906820534,7.8892505758899105,6.9751379145337085,-38.00789881214793,-15.63810702435541,23.086568784955283,-7.0162130602662955,-9.955286718024926,33.7104445166589,13.096986366014088,-22.09707763186155,10.542976786306738,13.088226282703703,-33.53186428500743,-16.32877564514683,17.42925593365726,-14.516083216255897,-16.599513205068853,28.508144684496486,8.980610629032217,-25.3540523704695,8.16819170521001,11.178110060905192,-36.742227623652596,-22.80442014986552,8.166716836941337,-23.153872794008976,-21.01733193054374,29.06409650473749,12.072614308466813,-23.2186049968088,7.457801951473183,8.634905045833433,-37.97954555888303,-20.227880167435877,13.217004553900114,-20.314599845878877,-23.996267647173497,20.38805734868896,0.6326714759012155,-33.74887890175486,-0.1413551403706208,3.7766795711178682,-40.03341707486385,-18.09634485166062,20.61480679620076,-8.208784521139183,-10.526310022467193,30.2025980511658,5.09913231422237,-31.132733187982595,5.410075491517873,14.670436494459251,-26.249781203560637,-8.543117340226484,20.476288411525317,-16.0808125277863,-18.077621612152562,31.216586388275736,16.108864617219535,-18.05514812572422,9.694884720575189,5.614725519098899,-43.444638465574364,-22.623720086921107,18.466663216751744,-6.8303913968174435,-7.514378818572434,32.542978040872214,5.419045250461661,-34.08337492534976,-0.9367386397501996,7.222116713171883,-31.174019420803116,-8.187143474285485,26.055521922224997,-8.251241409134725,-11.868332413190725,33.42518853783163,15.350556116213237,-17.601596252600025,15.066922609738608,16.370127388929436,-29.50207442793897,-10.015630655150764,24.57670126943118,-7.5433282192660975,-9.34336147234461,35.76430368628377,16.044021350808734,-18.71718778934532,12.471188486517889,13.406407347630493,-30.9904392487923,-8.73183984859784,28.199740108409667,-4.485058471390339,-10.571011465676378,29.112223979460232,6.373995232244532,-26.760088254042195,10.184867593389388,16.57937461505475,-27.219612572447957,-8.749960220805226,24.423305240054738,-8.341748144050769,-10.888916463333135,32.45687237791404,10.004900781589114,-26.74900901049329,5.716838109818529,11.45922819903106,-27.98976712612083,-3.9377846484145103,32.30349289834633,-0.7136646827557946,-4.905033062624316,39.02933999239841,20.44077503120205,-12.694979132731149,19.274838422013225,19.36797748228265,-28.485981761496213,-10.370491393934364,25.66788285105654,-4.437138564455413,-7.736275325259195,32.84778896780239,8.534212163579385,-28.71414771533183,4.0067434416554235,9.636330198137362,-31.457467501953666,-9.740784047223086,25.529303924876466,-6.176051240495635,-8.339026178614294,35.69505594456394,15.63572575907267,-17.67376718762346,16.758646881552576,21.795564592652077,-19.946455437046996,2.335531440544603,39.91190813304347,13.075266554219612,18.980597041129737,75.44852191168053,72.42162041017806,58.67453095517646,113.02086853985793,135.24432801364455,103.2797169180092,125.28616920606478,152.15062920085325,104.22214238556435,79.68567134069626,97.57226696676014,49.730553116623234,-10.174452093799411,2.157137655175953,-9.760309265298947,-65.41043436192444,-56.59824953947273,-34.34757444203015,-78.60270343918552,-90.14937292927272,-50.90996342129151,-73.20613581874127,-109.43688827043479,-79.75540522648488,-79.55963676524107,-123.06300739718962,-98.61856381298132,-58.20616603962272,-85.5054583343774,-85.4346091271227,-40.16941213476189,-57.03731324581539,-84.46421269493622,-44.05117169623589,-35.544182946089045,-76.82485632423527,-55.90665079745257,-20.234018537032888,-49.700922875238845,-48.58639771189037,-1.263587823877529,-19.199294059020488,-51.82674490149176,-17.373862563637445,-12.45901877394556,-53.1982413583172,-27.8307037010577,13.376366599731336,-11.965985784597613,-9.952915090791112,33.82146957343433,9.549790027616012,-29.354045600679278,0.690334385233907,4.149635956498018,-36.015035481192534,-11.00190279410087,26.855987831643343,-3.789253203825073,-5.791873744671516,37.860527903384856,17.90825351269916,-14.262143965184933,20.909344997866334,24.757238947216162,-19.49740186202787,0.2315977839005967,34.8497324032618,3.9301998650779737,3.448416612208935,48.030369790213875,27.036341570650116,-6.748087209420692,28.20981245460029,33.43727611212212,-9.451852796812059,9.481086337822159,41.26237136931033,7.758123398559494,6.333130537736116,51.676264372276634,32.01600420207422,-2.468073956666352,28.713320094036224,29.64411194091627,-15.614879852708977,3.1956484554816864,37.52783522448452,8.545012958395077,10.603598983199984,56.35477678981562,33.988734013173925,-5.293076545120405,21.31164576362096,20.35415295249826,-22.648177661478947,1.6390934059888274,40.121138678306906,10.458786510599529,8.742685038870976,51.11249699905286,28.376291472886415,-6.542691067783496,27.189301052295114,30.632336060309477,-13.777371960792038,4.990255284838691,37.2489118601933,3.713455875199159,1.9257586725037852,47.314961670893695,29.19974295728465,-1.5972195752859726,33.86399584861628,36.914119350898105,-9.741830364299773,4.5074567450554,32.2280837418247,-3.027957922774565,-4.020565709440485,42.52482380738115,23.433092992928778,-11.109859757744399,20.86204869403003,24.588718425533663,-15.794217662794107,7.637598121936213,41.62099922450203,6.188288400807313,1.0164449496831907,44.50800035618809,26.454374548370303,-3.8819454567956324,31.737460794974684,35.280191048822395,-8.439653588604099,12.297988478762292,46.936009663810715,16.11599846628028,18.086263205451466,67.57825287729474,52.25458457224565,22.260061125852484,56.63669413338933,57.782182110603,10.36467642330399,24.205067371678737,48.29153131692138,5.490942213283994,-4.025614913338554,35.945956052430105,13.157159631365737,-24.775213310469525,0.6695512013962883,-4.259118349326668,-51.10665202212366,-29.024619758009663,8.883345095128204,-20.075831537602586,-20.549441901013093,24.23649925997864,6.287963816597934,-23.04079231710007,14.537142862131113,20.594905073118397,-20.36268964472637,3.3738815861963936,41.528330367128504,12.12925809484168,8.229558826063812,42.963883249635614,7.80598779717584,-41.12023979816157,-19.56738747108402,-23.992283700668263,-73.31014461139364,-60.70838838503937,-36.448227031178675,-76.90129488399333,-82.95039132922882,-39.16005452777546,-57.9133354338355,-90.950206125781,-58.31723803726219,-54.47056604878818,-94.42380644713242,-69.59271646128803,-32.4129856674781,-63.31667367222685,-64.82157496754142,-20.116619319788235,-38.77371788251842,-70.44024743979261,-36.31603755393299,-32.93770520538952,-74.50700671581082,-50.49116286476818,-12.6865996215314,-41.59830345076609,-40.151309734451665,7.599519505968189,-8.631002668364697,-38.57874037883247,-3.463174892472207,-0.1857489868553417,-43.15130282839344,-21.469191279696176,13.78837779744816,-17.793522364374617,-19.809177922176126,24.244040189671814,5.422511034014168,-26.3873259815493,6.489630423410276,6.609093125663372,-40.219863592057735,-20.85322809013182,15.825935982020422,-11.619088205611373,-9.698853229188915,35.38405970501689,14.36971473757231,-19.185538974130086,15.93930868915228,21.357522161751074,-20.906556520953426,-1.2248962214922976,30.84383166801731,-2.6596984893176483,-3.876189066225317,41.79979046164535,22.29712361893202,-12.187145924279124,18.912181835282354,20.318988076607155,-22.574654117006567,-0.04766660469863382,36.285858042712086,5.543714804826514,3.249510215186768,45.7346723376606,24.315432662982097,-10.71402249449059,20.318454911721133,22.14154898855577,-20.777454528517833,0.8307469648251775,36.12647175301719,4.72905013048732,2.28174087290126,44.24896044157972,21.109644451018127,-15.675744587613124,14.629337213268279,16.843355843008723,-23.56846948963667,2.2585052678942255,40.376594219132414,8.60601048818249,3.1758242448015612,41.081861796169534,15.881673552150213,-18.568138016644575,16.591743181869187,22.53453533801062,-17.308264708998685,5.290057187419766,38.368772065627645,3.6752614097196528,-1.1725311705511672,39.6296987804201,18.342954698651177,-12.861949470978347,23.50561870051572,28.024281606491503,-15.854380843087787,2.519634656048451,34.1230075870943,0.7921400179067071,-1.2657305021988732,41.46129054802633,18.691909025042975,-16.280676976071703,17.78951874216876,22.969852193468366,-18.652205731335535,0.5309637973663079,28.9358413399767,-9.771223361113996,-14.189622870066067,32.035020325624046,16.48742434253807,-13.145206234159616,19.73979877231493,18.411390443973744,-28.85629492449239,-8.53776664873011,28.44787045419559,-1.027555003746901,-3.758862757484634,35.916380096532336,11.189811856157547,-24.469448310165554,9.244618376248106,14.50700825520731,-26.77014801631102,-6.03227867737078,26.571771912437494,-8.081482525605889,-12.579053950027536,30.136340673354475,10.4352804188294,-21.68407383692614,12.072407378167235,13.642772356713287,-31.984737058979437,-13.48392220833018,18.12771389192657,-16.789172669526746,-19.8607198511002,25.90062561452528,9.891419100548186,-20.12193966728084,12.266323700168545,10.078300096045798,-39.39303321883513,-21.86485431597003,14.170721601950232,-14.350624967898117,-16.119769776678268,24.914727118834026,3.436856416990876,-27.913466156708896,9.483011549705278,15.844256017849887,-29.33810775343326,-15.578609791187613,13.99537532030912,-15.823107045489241,-11.280075220218169,38.09208267898487,18.361833760592578,-19.92718875882377,7.545236117887381,8.194958108158616,-34.192336147856466,-11.909355835098493,22.605095579571426,-11.332938638481213,-16.044465756141868,26.08993452002727,5.601849517532713,-27.4746911884965,5.95427679003825,8.886182075685586,-34.62634264994345,-13.710959115968475,22.563812869964394,-6.577498458897026,-7.330643527999003,36.108975084421104,15.73698448922849,-17.39063081321177,16.317218169384486,19.62736145183645,-24.931683772849446,-6.972878459256927,25.274261872035066,-7.539306578502661,-9.813014051297554,33.969913136228385,14.205120001140639,-17.739343174559693,17.73062141498172,21.942425560890683,-22.54984683359916,-5.213434378809353,25.33737123799713,-8.207419986203181,-8.00567338289984,40.06603519620437,22.641245582959122,-12.088779025386359,16.122704778386215,13.916857500685758,-31.63722987866724,-10.305335632900157,25.66345469635558,-6.543599721777898,-12.034870124163891,28.21647505076924,8.586484251608695,-20.502443914600207,17.718458964801954,23.288671324093226,-22.71243913118245,-9.432057919903956,18.066684170624818,-16.087860505173303,-16.435360962351087,29.557866370930928,9.233856572192973,-27.52666623194054,1.459904200114586,2.7126588322304084,-39.35241884566821,-16.70529816280917,18.259621998200277,-14.741498488451786,-17.903915166978347,26.203254788274066,7.986386593027671,-23.360088985736347,9.796847472870617,9.745835779550374,-38.80223174654692,-23.08643194755402,9.739848751358954,-19.95732194327216,-17.494720307187162,31.770029320903557,15.869608464870039,-16.67740287003902,14.423627631037956,13.464658191817488,-35.26134394587641,-19.071095519600206,14.693827772878858,-14.541968619351419,-11.94815656632632,38.7319547923813,28.28125153635637,7.211991588569351,56.508667309432,82.16179391354396,67.09417021500741,115.80440600949127,171.47733556528337,146.7967343841281,134.3314854662681,156.06259471169193,112.54657897478401,58.91355709489732,73.2047199610098,56.05846447395014,-10.065389139841727,-13.337133398447277,0.7025500862198886,-47.03590302684235,-64.04310456052406,-35.55289764279796,-69.33991661876695,-113.59314370110759,-87.68507552242119,-88.63836680419985,-135.69054317672732,-120.217284012338,-90.32180280866976,-124.86767869930021,-127.56125808595024,-82.01591076803783,-99.62889964310278,-131.85537322965874,-98.00523434591454,-93.20063431375858,-132.6791337242472,-105.15925408552862,-62.004549262933395,-87.05256619967521,-85.18510190686882,-38.223030682585424,-54.893622776694286,-84.85956526449813,-48.21010446652769,-42.748005201266736,-86.21661376384854,-66.63508061406645,-29.885730481568537,-54.97645502731767,-48.026476470115455,4.690037394515048,-10.12852965482572,-44.68047005075322,-14.984355953532997,-11.483703616151592,-49.7734856979305,-21.941061095990968,19.294363224417847,-9.750812376548751,-13.288409147414953,28.812582298494046,9.613667425746584,-20.579271146877666,18.082731380184345,28.25182374020229,-9.313229614939049,13.803354030337552,48.34384299949271,14.78234719654857,10.357804276943764,53.5278367166203,34.89188936756052,3.3221218006553617,39.100634188369796,46.187773332599136,5.6060931762507025,25.685388629832804,57.931955027628206,22.750537419646164,16.5276873829298,58.75302606583063,41.03805658621785,10.420448673185502,45.35450396973133,49.95917816822148,6.209411417034568,24.476255654166998,58.480464496776705,28.025197920293273,26.339050796804354,69.19773012362862,46.06471150289238,6.595686472262905,34.59344628023558,37.07221859838056,-4.121249962967777,18.784718183074492,55.28693905587215,23.436948047514974,19.661542887007837,64.66041350863472,49.39223007640307,19.806522937699395,54.11936853648252,56.37810617230471,9.579040061024731,25.904845947938522,59.33743443605431,28.38601338928798,25.59876862825007,67.69257254003732,45.12965000183,6.899303273685035,36.01074682814205,39.12339862038343,-2.807013976497828,18.606217570359966,54.35822443447001,21.750718050945597,15.653666312590953,56.169534157714565,34.296384748467375,-1.6624376756450125,30.74448115922374,36.571259428356406,-4.801036477396632,14.244183299261854,44.82489288935476,6.524351973281696,-2.3196111146601783,40.4265918908736,25.01105530079065,-4.264967257690824,30.198625026312698,32.31830231569862,-15.526400504299705,-1.0072990858405362,31.143052239192134,-0.253333826891609,-2.4648779760009027,43.75783772689673,30.85086816653913,6.447634799706989,52.05624127661274,73.1818046237008,47.28496686884992,80.8369146496178,127.43817408534761,105.77206984423702,108.25784788835675,152.1889395301218,125.65058096610612,73.65852948876855,79.83248695642173,56.13430475811832,-11.293248903164098,-11.038797695185625,8.46260287037078,-37.83593279165428,-57.7917241109529,-30.75966113074459,-62.78094751735373,-104.65628000960575,-76.28614196137033,-75.09437603269475,-122.27965183699932,-107.91969647598424,-76.69729914145996,-108.34796509150378,-109.16959780003882,-61.58304084200673,-76.72183231092193,-108.93274178564478,-76.46326608026428,-72.52253238618945,-116.10914264494443,-95.61570926863476,-55.42090885594959,-79.37192649356159,-77.5865491915581,-32.022812659288924,-51.410149101919934,-86.56708644831802,-52.55271919739923,-43.24125084069551,-81.4714408556571,-59.651578246781305,-23.658389304388535,-54.232128177095866,-56.91873652154557,-11.999500266199643,-28.08486862269642,-57.47475144932353,-19.693149911500935,-11.017903133510616,-52.3013149775704,-33.6683415795695,0.7254952941743511,-29.164214418420002,-30.29198971763195,16.026484599109395,-0.21070084461112693,-33.26974260546631,-0.8295125237941292,3.809827634419788,-39.8874336331904,-21.29303651241763,15.241337510299275,-13.611842966055635,-15.632188100213165,30.713555739177295,16.453960685101368,-14.048828009308345,19.866894702539483,23.36049753642211,-23.37046007605327,-6.441070411224796,31.713384037383165,6.442809747273792,5.792016670977509,47.217622771113255,23.308778464176093,-15.65506082042455,15.501386946553087,23.0503495307012,-17.290634667815418,0.3622114357612354,31.16560386930674,-3.8684315670596767,-8.890470221119301,37.62112233594028,25.06102255283151,-3.7948261223458104,31.04590133090594,35.29035228062301,-11.17442600771852,4.014300590137699,38.23873750592693,8.880167875221513,7.677877623359409,54.303407949087934,37.68926973502283,2.4284679988426277,32.27702400752798,34.97878852482369,-10.34748239660668,7.274875955704552,44.13455354422096,15.930581946528418,11.974280865263419,51.707535116577354,27.84831665823836,-11.125652752140695,19.58662222071964,26.988330129773523,-13.096010730271052,5.447074018734071,37.984028779064666,3.9587349359128083,-2.776509217173467,40.2902317734626,24.61480580029572,-6.654324979482787,27.50054158963802,33.696801595945495,-10.247086727677747,6.555916384964519,42.44112939723558,13.942416675071946,11.030995506424215,54.13993658093707,33.28711309877724,-5.946421550395868,23.01298151433369,29.349751263583446,-10.554501860499276,9.818135027071577,43.850413437506106,8.431113768071071,-1.4440310363991902,38.79892014012104,20.69959560084835,-13.030864546553275,18.499178739798353,22.799166076725697,-20.813568664447978,-2.3380752036461807,33.892486648151895,3.8067369743910184,-1.3971573676065878,40.32193472932476,20.627969421703234,-15.72797065162672,14.978861328438303,20.1173042009079,-24.200650836874164,-8.108182132065306,26.65607220652407,-3.8329312939556246,-8.349392215800197,35.91350382678645,18.64815628375731,-16.594386087562683,15.167838436082935,20.750662879570143,-25.165169059277453,-13.012812093065662,16.63443484436632,-16.860663319969596,-21.195659244740398,23.784992958520117,6.455805526675984,-29.994251866907177,-0.5276917833529815,5.67522551573328,-33.565917400039254,-12.000770932984821,24.135679640617326,-9.699628389417015,-20.98001483720013,16.273756765457318,-3.367625920388166,-35.799164127954704,0.023801620541330948,8.914220642550085,-34.179414337796615,-19.326422344685447,13.15478848553387,-18.225831568902972,-21.786703120536984,23.22557840027822,4.495160629279388,-35.435216382846086,-9.452808546148775,-4.850353395562857,-42.9028708228342,-16.296539851756954,26.414034319187504,-4.020429898773109,-15.927638092934174,19.46295833819271,-1.8631584246045794,-37.059638382770814,-5.327638438037813,0.2480409743902201,-43.93900288892371,-27.172670445581907,10.22387931567457,-17.01806942203786,-21.194183043466833,20.164351426338655,-0.5625168145212047,-38.260206497711124,-6.855707241862593,1.5656534138007228,-39.27470106634868,-21.2624605396716,13.427478472487692,-18.480155231523838,-23.726875038248632,21.602564702733062,4.947383292807261,-32.811661123446505,-4.884423774993888,-0.30417503147167047,-42.44446778961698,-21.77831468045966,17.577997081015646,-12.027924176500743,-19.942737439062203,20.154219222699048,0.5682963890269139,-36.575256081802216,-6.902276063406635,-1.6263113136905312,-45.7075499347187,-29.089052108856063,8.281293355997025,-18.6982726847194,-21.67258914962406,22.683901969060003,5.273609679313536,-31.509284730189194,-0.6290777430691463,8.601092525516759,-30.552983953765946,-10.964947359929488,25.77146845949727,-5.108070111960025,-12.474591269627542,29.385413972207424,10.713486430485572,-27.648135710353912,0.21265474407248774,4.674959622484472,-38.44527611466046,-19.399912773353858,19.310534846149675,-8.886928264454099,-14.151294704912896,28.28756916642356,10.419950457447943,-23.56489451905458,14.59715026476496,36.299113974134755,15.21395817361279,56.93922649632665,117.27742293106772,109.43619799752506,121.99006160849284,178.07220324881868,165.75132708899764,123.2835302360022,136.9678448428862,120.84703935818038,52.703226693113756,43.88383744417214,54.73026532605574,-0.48093096626531917,-29.776710190759367,-3.6639718373500862,-31.530602147670027,-76.18651616563226,-53.67718583909347,-55.13795459231217,-107.41793284024224,-99.01999199982455,-68.0026644677288,-100.8848007806122,-109.03430730358374,-66.38685330727492,-81.84936501801178,-115.60050361003148,-82.8457233062065,-73.2485413378573,-112.66948490770126,-92.69457204796295,-53.26476522958037,-79.16228746686987,-80.77923085898584,-32.1094055206765,-42.55078429979143,-73.55496631686138,-40.58319446612714,-32.52066952502097,-73.45668379883142,-52.153002516880406,-9.160423850918637,-33.56181942736062,-37.506003928814835,6.722639660154172,-7.965082304611489,-40.6051573899234,-5.679719514018977,5.74409432007362,-33.52915767141107,-12.89215583690525,28.963959146894922,4.13471058817162,-0.3973719883439175,42.18032599924341,24.698361172902096,-11.58927686106042,20.05593926293679,29.37603197186951,-12.48030503504165,3.4440631103484574,39.69210568354709,10.790860617663027,5.104106910484592,49.12301047619684,33.30053615337216,-3.3575673860378448,26.87621916166149,36.16901498660586,-3.7513963862370794,15.351508335520208,54.44813279857376,25.60254075281498,16.890083504591658,57.393823148157615,39.28013505745129,1.6532537215183343,31.903746323170907,40.9082405333944,-0.3869146502587135,17.238936937964816,55.92731277399633,28.055891533300073,20.473706485171505,60.27710597495138,39.594552844614974,-0.9112757894673376,27.631554498181522,37.15167255453247,-2.5146290866993333,15.33981237598046,52.298424354623485,21.49054647389509,10.856882089259173,49.28874464423418,29.03749671829091,-10.503434930381019,20.016959366175747,33.11519227017566,-2.424595181880285,19.22792286280322,58.55484397170475,27.81764653266181,16.75759998939532,56.826735848857325,41.10922603313644,8.339370806360886,45.2829885208225,61.36152132150833,24.9695734633668,44.31615598379022,83.60064909765912,57.49884582728779,53.48643086797719,97.84858483386861,79.41988420327641,34.978007652694096,53.72681046865902,50.81240834841581,-2.159095046042008,2.9279706602065385,29.846590955369827,-7.377067622305766,-21.521086556989367,14.91808126800854,-7.960698152757972,-52.632391815137645,-28.82531341446509,-21.120185274947126,-59.492196267968815,-38.360175744629686,3.2459016824432965,-21.950018761196283,-23.820586928341267,29.319044119593347,27.454112445620463,4.309066493896987,45.466630009516365,62.01709353926515,22.377781011286157,33.56461258156427,58.18968400304385,10.142705862561026,-18.98637361590529,4.322934039385929,-27.278726153990824,-77.8201517693715,-60.253225477660976,-60.520316240616864,-107.45796454697376,-93.69662418030597,-56.99114258489459,-86.39571849529577,-95.7387430835743,-54.19054717990206,-69.96949645024311,-107.68699508820882,-78.64447252472262,-67.54865026551761,-103.81115135050779,-80.63946538289541,-37.67187071534206,-65.77072002460699,-76.80255760494545,-35.743981346296195,-47.597900412415,-77.00947597115278,-39.846730161447034,-26.23071989879916,-66.29740376837756,-48.531755182602865,-6.208301450529161,-28.032842942799512,-30.485693311217013,14.797680582854081,-0.5887800155305971,-39.794603124278225,-12.210805245514347,-1.3022252410309574,-36.97108946238035,-13.190160318851529,30.599208941310216,3.0984041541677563,-8.642902152165567,30.782210051159918,16.968262671809104,-15.36523736737319,18.71841701782814,30.236946289171758,-12.299869815792192,1.907810579244762,39.740346906551586,11.586268789767493,2.548291780880084,44.144798055605875,27.750433364088742,-11.155862160650194,17.489465473213052,27.76296290417354,-12.043601091513597,6.468838815107825,46.77581953890938,18.3977839485981,8.019851954308026,49.328569435087275,35.87939739160099,2.5627912902573264,36.33187035984211,48.78772098045086,6.348230284038413,18.171713731657505,52.895913613354764,23.129533919766526,13.456164153389008,54.84966347463043,38.508776661422715,-1.1247213044809197,27.52424606317256,40.493853506571625,3.0109926945969008,20.781929328253916,59.43493655213652,29.682337893080287,17.903069838968207,58.076431236710135,41.610175639066874,1.8243556968406125,28.745781983610996,37.395735093722216,-5.049742616584638,9.571852289086634,46.99786904958903,17.424658440267635,6.076124519643661,45.0345362079691,26.20822530925026,-14.974295369209655,12.252847044165078,22.590181851249163,-18.239695409390723,-3.508723103140696,33.297372319478164,3.2741046396810702,-7.644815344897747,34.40875510430136,19.872895724948567,-19.749146772666137,6.565073975493263,15.809845949429173,-25.638739820287995,-10.051558803951071,29.016155033172133,-0.24344353914698402,-13.475817407993361,25.484575865036835,10.688078804734609,-24.719125648188005,7.78743827300001,20.47877214233161,-22.620439090734596,-12.86619159119127,19.43262353600859,-12.918939203471908,-23.707146712250488,20.60226309698691,10.640504107470896,-23.066551700862004,7.287481178334556,17.144947807709123,-26.262156315782583,-14.274530230471692,22.115953018757732,-6.146188949394261,-16.20844564675619,25.417043661493103,11.4860145450908,-27.428770205239307,-2.608453869595529,3.49149230269424,-41.38755860414143,-27.782077350632104,12.932139936919034,-12.035111564299648,-22.071604120539014,16.604177585526404,-2.319638630609276,-43.846847398914086,-15.075495356255262,-0.7242643696194626,-37.119935019071676,-17.27938263909007,25.1211026895245,-2.101848315691047,-15.358033416538138,20.756998475544187,1.1159496722631523,-38.85890076696585,-7.56704021279714,8.347985418187122,-30.915587663970197,-19.851864220481954,12.812830919123122,-19.18221422285892,-30.164986400171617,14.147370358804192,2.5505788521447563,-37.32647585961078,-13.223898999110116,-3.545271406188913,-42.1569138094055,-22.98202724150578,20.57626029145879,-5.371706710881504,-18.430795692872803,19.40797651156447,3.331760944644989,-35.652854348790974,-7.74629744567147,4.7410598177409575,-33.549149920554115,-17.587874883620035,20.110288060869514,-10.597706147961787,-25.581812211785973,12.266839509037364,-2.155014206703031,-37.665545018047645,-5.784464611438366,8.88653790836972,-29.379568731775805,-13.880611568135855,23.749893643078636,-6.715614688908083,-20.437628874838627,19.660501279945365,5.905632664543331,-31.634042418311918,-1.7752417831590996,12.02999412758145,-27.630355117458475,-13.64984030300542,23.610963482290508,-6.89090852039509,-20.545523636720873,20.611480843939873,8.166201232668934,-29.715633496203154,-2.438405227787417,8.303576115733513,-31.724312058265575,-13.71962546366226,30.296917791345418,5.321765128173137,-7.875955931503366,28.522562601593357,10.590350252022727,-29.115984371936655,0.6763421896195148,16.138380901517323,-20.78960336567237,-4.0782567375375525,35.50243299175128,4.943947666975866,-14.535281972142247,17.29186883901825,-0.7343331229583772,-37.531134200237005,-5.127972948697327,10.0489233122516,-31.545500469604434,-20.297548002545984,20.146297530644617,-1.0492718235814138,-7.237618023415245,34.480603560404376,17.25327736221042,-25.864058798467383,1.5905773882065617,18.413886951938622,-17.15083580581296,-1.648590268103181,36.35267705195124,7.114573947072422,-6.828488092198784,31.474246806530445,14.551019950635823,-27.719513114720204,-1.2877670432935382,13.663244251766669,-21.93679916799189,-4.255944061896146,36.175323489204956,8.181283198568595,-4.521592334994655,37.426348473107616,26.11255112339147,-12.09358501833048,14.383361908063362,25.371771063078548,-16.169742675214092,-2.5340451452299355,37.2750028291419,8.419628254373041,-8.539734870493396,27.497737104404354,11.911727150351478,-27.449066036854155,0.2652561969754963,12.581570006817444,-29.573868812873947,-18.06054148011629,21.460215559708953,-3.0123809829774544,-12.53108494046971,29.72062327082302,16.504023834944313,-24.24745427428496,0.604910065080194,11.962803871658341,-27.82004342748984,-12.716813938224073,28.327229923184262,1.9753802063181318,-11.754140836723215,26.158787861530143,10.573745394940019,-29.69324690230441,-2.061783517587365,12.742483611604909,-25.121483740135922,-10.76256242345276,27.413916351232324,-2.6505521017897564,-18.530270269954872,20.88043889450912,8.683815040404728,-29.61032572554105,-2.3189987583422713,9.876405947034957,-31.380300601104565,-17.21231448874367,24.92783782948728,-1.2956230966231885,-17.280448380952357,18.125693276377884,0.9890325467009884,-39.207333221156404,-8.52905368737401,10.887308113982048,-24.05307068804887,-8.816248800677322,30.21281737664588,1.7332338502743205,-12.75161107884491,28.45013815146813,21.187869372542533,-7.2154448671929625,35.35327896346574,68.77707381113939,54.09312775616132,97.04152834855942,166.11862371936382,159.94069141359145,150.98734955605036,178.2292088140258,141.40926783151355,75.59689757220788,79.02615713984372,70.50031118545594,6.333354160347827,-6.456506358596528,9.23737410663123,-37.8130062721597,-67.96056695989752,-41.631122680536606,-65.56315445138918,-113.39785620817622,-91.5077265007408,-80.69082210141224,-124.47771295144587,-117.26987644778836,-81.82132038805196,-108.32654771959079,-116.8353093682432,-68.62979383650183,-73.6612206988577,-108.58601051124651,-78.93598775572622,-62.555644800291624,-100.20920135665162,-85.28288363629142,-43.64852010543838,-69.47097053522778,-81.82690505852183,-38.56996962974744,-48.44508947734366,-86.90464070497194,-57.36583012037673,-37.60840905635247,-69.30715804558648,-46.29629502408596,3.3825211858606643,-17.81517438137231,-30.572144876638063,9.252159824272795,-1.685979659858008,-36.20523536433105,-1.515612176896326,20.034009203940563,-16.5042482984933,-6.3807289824433635,27.75744087103131,-3.7830990776301796,-19.938258119388077,21.35848074971446,13.972659923740746,-18.59917785079236,15.424041427756102,35.369812109905844,-2.5056927184067206,8.379358889696443,46.4366105223163,19.685584579884715,7.317928513537003,50.5249764595001,40.381457721177,-0.22094558819355292,24.15640143792968,36.57433797062032,-3.7486098965050942,11.184006389290506,56.647979386772896,34.84566190060913,21.783753531657027,60.3791458617566,45.66072786879292,3.0840887212090244,29.24185611872553,46.608040493231485,10.207060420969185,23.480587547304054,61.548854631707734,29.69905146151412,8.26200909302879,45.073372739119094,36.3197580637434,2.419278927988346,33.83948831825542,50.47070773909084,9.057924494856671,18.57459869651541,58.86113202157583,34.259889747589874,20.662465011911834,62.21204842118006,54.02704533154753,18.998492939563125,51.26577091707701,71.93976334127656,36.682780702399654,52.92556310073143,99.79443794930707,81.34066989320593,70.8406682839072,108.89756989503948,90.99600216542098,43.08723910780198,61.718032158274404,69.5421183622068,21.31450617380679,21.59085480352837,49.50591503131784,12.821494664697042,-11.035144794284257,20.76429349733388,2.114062074759813,-44.55987801941084,-23.827606165022186,-12.416720469549478,-54.87383070439911,-45.486064365182074,-5.7718095951135595,-30.558663232500844,-43.19488089027642,-0.8441417079035354,-11.574152589956235,-53.92806236629294,-30.188067327918738,-14.47768477040837,-50.685884216988235,-34.31184888868383,10.03060396639623,-15.555617316834839,-33.607908425451306,3.7641970996567657,-7.140458299517244,-45.69354766682841,-18.578289427569167,-3.3444389370593823,-44.74957433745914,-36.133682573269155,3.0862192668195085,-21.5095491976723,-34.68208917586841,7.293202643054986,-1.3443210572187905,-39.9605716070627,-13.462975640888576,2.3513641101158984,-37.32163803587446,-26.57933217645973,13.70681282524775,-12.410268466726388,-28.58490138790813,10.693632743790658,-0.8365689653013018,-43.21961717358913,-20.64845110112593,-7.4847599379227905,-46.68574566340034,-31.24981711240356,16.33244630610968,-4.4002588921830075,-20.897246623132503,13.444586560632327,-2.6145766362886214,-44.71666446876858,-16.24954181802824,5.384824015298357,-27.87652715039932,-12.529152949937037,30.046618415042676,3.210191096304257,-17.028711500663356,18.58748506230509,8.036216918370506,-29.044292869701206,0.4646963200760297,17.6509012756227,-25.47426350395226,-20.386123025116746,17.56198085592002,-7.8679388959347065,-24.5065360150009,11.889324261600432,-2.9765559722279686,-45.07711467884713,-14.940649854174591,10.114143598285594,-21.640210672863397,-8.77544356251274,28.944393325706077,-0.6327121552202719,-18.069281837373726,22.654153948450464,12.788815250596246,-30.076532407214764,-8.693350626924266,4.9594597676827386,-33.53022589299732,-20.106367972361344,22.500510083510715,-4.363792555148926,-24.577705551450762,12.489949398890754,3.7974255817656744,-33.17062997635352,-5.167357147325321,11.035643154256798,-31.262566210426943,-23.992716654297716,16.998942203744015,-4.607918705222199,-16.50369380324014,25.354759454967347,13.835995846803113,-30.8412638251704,-8.54372932179817,8.413148221476064,-26.94156307102599,-11.254658724403903,32.91661903237192,6.569692795186469,-14.352262285070303,20.690221534631327,8.987789641316668,-30.248736075741895,-1.2180738639548423,19.729445147469065,-16.97879051173367,-6.188206613822736,35.17336476922725,10.097204316200125,-8.3820703046371,27.614457377890574,13.65930862074056,-31.53650277047457,-9.222897005872783,7.849396979719668,-29.610642112963255,-18.16574220115075,23.75504068106307,-1.525377792007987,-19.819715268819902,18.674477442202953,9.66238927004341,-29.437875055127375,-1.464490322218861,18.87896946814745,-18.382629815224455,-8.08220936799226,33.36369692708742,8.6773767183059,-9.17621451879295,27.506186752199387,13.219342110090695,-33.46042089548074,-12.046738605258716,6.403609652718982,-27.374427653643956,-11.190413146009215,34.76830723345788,10.90869204466824,-9.044209850505872,26.968426239196692,16.98260294324517,-22.17028790824441,5.338306022959891,24.378652138238007,-15.639402227682517,-8.061952395116563,33.444183171241384,10.695281412356804,-5.4865353942143225,33.18398912082406,21.936726733705942,-21.314397239004585,3.02483829762107,21.971047285237137,-15.241409251791683,-4.070627357973635,38.943850538502765,14.802808809409896,-4.560763967474863,30.8987470196536,18.52831788419287,-23.58602079676011,2.2236083152911945,22.070728758877525,-15.635061165556941,-7.508478005038189,31.833445233828936,5.73927040566374,-14.482443303654318,21.09116874616354,9.93442125584537,-31.544266800861635,-5.309299669047045,16.593458008990588,-18.36466877815848,-8.323144821457328,31.834763814998745,5.472197242967098,-14.712686374904939,22.392159988476813,12.266167728435832,-31.166761667213123,-9.284192509834728,8.552720550480215,-27.491011843116535,-14.944229275290411,28.655003776994313,3.5184913709054744,-17.947047927873786,17.795939306732937,9.150562345427666,-29.686248035093342,-3.621711004296966,15.120251938768991,-22.38493112869478,-11.241713607050398,33.568063946606294,12.160719690584816,-7.528768863352595,25.35991963453391,10.899918954377151,-33.67433441192128,-9.247061018543983,12.241713490694348,-23.81834316966748,-15.700005922228348,23.60723125874955,-2.1356692679171374,-20.26064238357947,20.98685462896571,15.83854457637435,-24.201070314080226,-0.9596403860994869,16.50727213770624,-21.529498248151647,-10.679972109770958,33.154112558294365,8.475751123596481,-14.057156573984477,19.532756115448166,7.625736336405504,-34.906576562002705,-9.83850823481785,11.060251000874525,-25.18609700587411,-15.635607213727694,26.261029728505974,1.8760892951529833,-18.537573911749888,17.932825627425466,8.248541691056696,-35.1700538304278,-13.140748215855783,6.266108183995691,-28.98547836953226,-17.100778130334817,27.153965834777864,3.20765732567164,-18.771923902914438,16.824070918144493,8.59572865444292,-31.74751261892453,-7.238792760110217,11.256447575737226,-27.962257366376377,-19.544139236880845,24.140419056445168,2.9529820463491685,-14.842108943735898,22.711696206227135,14.333552998269573,-25.313731965956315,1.1816980054066626,22.563402421140076,-13.839450260018278,-5.3001350509515355,35.352570973848785,9.24424245962583,-15.038048871816216,15.855540992856263,2.5157627816631134,-39.14011143862746,-10.104302190112767,16.65970357404884,-16.49969217099407,-8.54977004587397,29.914882999516472,3.598280522938145,-14.24606868571541,31.31482821589212,35.717973875557256,8.830954713425939,49.64948747054187,89.62300860509782,74.8653838666786,106.21796642750164,167.36984312219298,154.19544876823838,133.49659705222598,160.4524197294911,136.90687579641693,78.39695304085282,84.56770699024652,86.10413057517667,28.699408778317753,14.077836816085247,32.5155994805752,-11.474549415870186,-48.006513021186564,-23.824661877765564,-42.07156106280545,-92.73555849430439,-78.05314410430492,-67.29714709540548,-114.57385763284098,-116.71177447046347,-83.49090555821002,-112.21667452642214,-133.42274596312373,-94.46772329450384,-100.22298433526707,-140.4157100046391,-114.63278597105321,-89.89677633880942,-120.5600350301239,-105.41139075261262,-56.493239240105915,-73.73498097474547,-88.5627002561704,-45.404477705460764,-45.82010154850103,-79.48741434813013,-47.55453372094822,-18.882446187731755,-50.43826230306615,-41.50511213712212,-0.7563356358694762,-24.790938323472247,-44.08797695070558,-3.565999773317156,-6.846440027103703,-45.548187779370934,-20.03106683204983,3.084542990144941,-31.307741122809098,-21.686130638146075,22.493715909172895,3.174027111677727,-11.171923833193686,33.64787107849829,32.86060960052935,-5.923580179563851,16.709253232122784,34.369141398886626,-6.103327734109204,-0.7622144896477518,40.88198964359581,19.472139552435536,2.034286951857999,40.216089071191625,29.20172412575684,-18.421031132989757,2.374185793417386,27.075424541455753,-1.0568287937011362,14.694313389907808,59.708815243700755,34.59610578983899,11.015700718104181,47.95060146337444,43.27577437067097,3.2238795346359552,25.334777038681974,43.58198336575926,4.267355316678241,10.391694057706243,52.622757853345234,29.475364413291576,6.60341191494196,40.044733183868814,29.009211250992372,-15.15079240696379,9.863167005215526,36.85754708791906,7.232440105239165,19.663551141486394,62.34003668489576,35.339203870601956,9.337388711308408,44.3279630215336,39.45034928243912,1.503778494205335,27.300906941725547,48.337531661043585,8.783741880629371,11.980526409972855,51.05352606818716,27.020158966047205,5.991507534742867,42.963725519859466,35.28282601127785,-9.017299878622941,11.149386313667996,31.433462178365993,-4.5570090036147946,3.3600672557041147,45.487936041005035,20.26136925580731,-5.0742410336452926,29.300865920892875,22.871861539324815,-17.537012582264584,7.0488066348623555,29.532380322632502,-6.917095063408144,0.5615318182900015,44.751150418290436,24.748662040603747,5.144382032463446,41.23211098236192,31.326074150479354,-15.408689514173405,2.905307248769514,21.739858970261157,-15.406215917939516,-8.147291990555752,34.34716039203027,10.941745429846442,-12.5829017748142,22.81407978782711,17.871320573708328,-20.923279376268702,5.273839846294468,30.480267933340176,-3.5854538297365544,5.3697345966822265,52.912262304142594,38.661282256109395,26.4686471006855,72.88262936396995,74.70166149357115,37.09728724675065,61.69542835030549,85.08828524323927,48.86077581018367,52.09013405918238,86.00043924082533,48.89001597800012,8.113792752473769,27.078939751935433,8.351622366101319,-42.88922672610691,-28.969784204837076,-15.728236078532245,-61.06834717216264,-63.01735331679963,-25.78847778407762,-49.59399225280428,-71.83155588123314,-35.37711796988339,-40.930474697012606,-83.56643268679827,-63.10936562961762,-42.17110447818112,-77.91233703331767,-69.82510496540404,-24.697677568754198,-45.546761109407655,-69.88859326311174,-37.86154508064688,-47.00964657353383,-88.7912013075845,-61.477560729648445,-31.407230227399936,-60.78112383838155,-51.58695928873914,-9.966137681169077,-34.26933007277012,-57.072696167374474,-18.300602266924848,-19.356673076970615,-57.308967540539285,-33.736055359999135,-12.031362349777673,-48.565030851815244,-41.7017705594334,2.6141002053979605,-17.110095649930184,-37.636256665534376,-0.3601239656188895,-4.757451294643989,-44.96588423835372,-20.927200592516186,2.8588057356307397,-32.82446372473128,-27.02141382411598,16.013483441731964,-4.71916875945006,-26.018622172365106,11.11251725983919,6.327388904764831,-34.03352158968455,-7.545408923918298,20.49764869957473,-11.989800456582305,-5.4774418369433615,34.90917389923625,8.881161962474044,-17.37396076583469,18.170723062108394,16.14506061263105,-20.274868555710324,6.952356314736736,32.01657427441802,-5.732273044387831,-4.070627506641955,36.96054335933768,17.626376093509137,-1.9349301155415057,35.96063391512521,31.43699384899671,-11.48707018699578,8.71144987821592,30.35661359017464,-6.7883593304745595,-2.9822223096983684,38.76825186346446,17.056116057083116,-6.668716610269357,27.08903271647059,18.457063823047886,-27.862963435863925,-8.630186868408805,15.306621344091933,-16.441881963186574,-6.180935667589196,39.499849831052934,17.665380664051526,-8.30574484561135,24.84086244572365,20.200238831390045,-18.841422644240186,6.042824103645501,30.870587895793633,-4.1838088849853925,1.0590311553573741,42.814437301097776,18.82718379115876,-8.839009876968348,22.85286977667203,17.088444782137152,-23.015232690498955,1.9102426651121611,28.011347497666353,-5.823195256416788,1.1832018551245227,46.42381015030329,26.361696111179356,0.45816344543405485,29.9269780956652,18.654413770803274,-26.554254679747245,-3.30439835975821,23.52349364898015,-10.723328515294096,-7.795642127229572,30.490969521355343,5.520932134866683,-17.816932819987596,21.144202382185668,19.60221777475997,-21.90260166014538,-1.5025852839128646,20.622032158571546,-15.162017494229595,-8.595483663666913,36.91329205104745,16.87354628408627,-9.279330244016087,22.122556290921537,15.758880718343878,-24.87197585269165,1.7580258757448135,32.51534393350382,1.1836416203472488,5.0672707606080225,44.270348329745076,18.638468255196408,-10.057477205439888,20.846309915915036,12.402588413561162,-33.27259851597469,-13.070212519938112,11.968419142404674,-21.579046001807363,-14.880959421388756,30.412001973966557,11.69578331733463,-11.227520127236962,22.84090397570359,15.77803658646783,-28.373756192025404,-5.5445784357557955,23.816406193690586,-5.727008044009345,-0.11021323173144637,38.286586382447794,10.786440034912111,-19.156422473272066,12.59050573867556,8.411339239019602,-31.594208486283613,-7.649395713216952,18.576137045980957,-16.49006775951281,-14.238841736781023,26.020676317168395,3.8206549160948846,-20.26185503820661,16.178408491545877,13.47469098610298,-27.98284834815132,-5.202652813672186,21.17203322227347,-13.631924012816498,-11.320918737296019,28.603511229147756,5.455487682394947,-20.321697168692065,13.141465673451705,6.776044391847009,-38.29739998935194,-18.814266457966987,7.199831473306916,-23.218898689469075,-14.059111676399242,32.39480209931614,12.652877380674134,-14.931308030597028,14.151827623477528,5.2293100029507915,-38.796551584514674,-15.310333930227603,13.661876099674565,-19.094611948490286,-16.047593885389546,25.026317795090176,3.136668217178304,-22.851182285793733,9.243832911910907,1.0908310278095747,-44.554438927805265,-22.441975015639365,7.350159732528926,-21.831231903179663,-13.814275121777083,31.48496952249096,12.052175205140294,-13.76235929472585,16.504004305163257,5.254961614445012,-44.86690783430439,-27.61679173191066,-1.194567425896624,-32.24068026143289,-25.265519255806094,19.23529559195928,-1.6690625725845507,-28.530337065476175,4.335355849833228,0.8365027292267122,-38.731443978040176,-12.048875592859162,19.928005756064746,-11.013761834249351,-8.473050062533012,30.804591761149567,6.600028988987983,-20.819004038890217,14.006940423275442,12.361396701509243,-28.29547107102669,-6.094605588678089,19.568476329788975,-15.918899940736864,-13.452601655348634,29.159952266214596,9.028828266873358,-16.669794269864813,15.343312231702004,8.156698633460513,-36.85550352638262,-15.248176270358353,14.17558543203354,-15.572202101841048,-9.602690631429585,32.480240163216294,9.624584083395742,-17.841316024064888,15.691315494869901,12.82038920675451,-27.50580666313871,-0.8985821866864931,36.687645446233915,20.916682960007538,48.23416383720438,118.26043317672371,125.43069590046505,124.55692070057998,176.52467306770245,179.53178207984575,129.89926726050282,132.17296168261038,133.51806373592765,75.56092805037939,60.05420859371402,88.20571001056054,53.70165481338154,11.13481219798271,24.638966128656623,-0.6546886272034431,-62.13862910450794,-54.453706994426554,-37.00027681109353,-78.97200662337363,-85.8334891298188,-54.968077095179964,-86.49869109520206,-120.88638989348489,-92.15123605431154,-97.83777604225565,-141.4619851740377,-120.96126284581936,-94.83023711175042,-130.80316565020127,-132.010889975326,-93.4531932347177,-115.2469460099061,-138.1169806664387,-96.52015208586644,-90.41627025120421,-125.49022229848632,-100.14951325825714,-71.51224039858319,-103.6638931549928,-97.01607545190942,-48.27229250181304,-62.5012384715721,-85.02548626920185,-50.29992157978814,-52.66240314947822,-91.51894563089866,-63.02517064950078,-27.11238630449367,-53.942671178106536,-47.86194924105253,-3.775988411673758,-22.576650026548762,-46.55055151586312,-8.736293438859068,-6.1441667669173095,-43.456726681765176,-17.540270367487707,15.203184879192069,-13.13059307124153,-6.583686598941744,38.7235595649603,20.07912897475122,-5.120118219170432,30.435118520429576,29.9524250624162,-10.764724895415469,11.369940678014515,40.296536656811185,9.458126523534043,14.908523975193841,58.944125406869524,38.101071097143475,10.96707224821964,46.00309006260912,46.31147138842843,7.178043176838681,30.95383945812386,60.462159016061975,27.7203103413498,28.25774436985601,66.78541831758106,43.154185355284085,16.82537150164871,55.626757305863165,60.269672915930144,21.703103129564543,41.10337541041543,64.93894354637872,29.40601378747084,32.19315885003885,76.51203364528897,56.5777893625872,27.34014152975007,57.6260854451955,52.574769734270475,7.911655306015984,26.796994699557146,53.273487165527555,20.920780900758462,27.580592745843514,76.51791033631768,60.3671249019652,32.27286650878375,60.69077579560475,53.203049475894865,8.849418992311811,31.734685502504256,63.47109433564215,31.885349043043547,30.583040156696025,66.13731192117568,38.29718947050711,5.071632137411161,36.91556981581459,38.1605985757393,0.32529334566103785,24.221142945621015,54.285898745986835,21.92642341709228,22.934099382264318,64.03328206998565,42.53370462853286,13.360491799609754,45.457490828959216,43.95835397686564,2.028256475051336,20.856992197147704,45.025739893460184,6.763903192302571,2.050797249204469,38.20044902034513,14.501551298972277,-13.34871109617769,22.11326268510841,24.503766424416735,-13.648235304587914,8.585116043721106,36.14901537749097,1.9991278624569198,2.8386434046323403,46.305010345721634,29.3387731468902,3.5126348147708804,35.25433311829838,30.45683845897439,-14.776636567382784,4.864670178185971,34.545464368834836,1.317389756635908,-2.4913023024878296,31.55855915185987,4.328734922497436,-26.703271425678533,7.4741908086550914,8.746993279087668,-31.66239074550875,-10.497045422758031,18.343356013857836,-13.646714762974216,-10.913808761198549,33.04611306369944,15.47478385599932,-8.231683752540885,31.728610769561882,41.461432970387065,15.743637625823476,57.08321748583556,108.6589411345392,97.86406950616295,114.57988868555078,161.65646376021186,135.33405954848547,90.40678877981057,99.12577102031723,71.92040836070981,4.963511003537839,2.7081177299795662,11.932409429760982,-37.92247345390902,-52.69416958778468,-24.288960026834015,-56.07172620738453,-94.90578254921219,-71.15560864481047,-79.66129655406567,-128.0959289332755,-113.0061752211511,-87.86642477657662,-122.03219345807135,-120.29436666919761,-75.90990310075586,