-7.956615661826895,-42.84168258629,-102.92670168388139,-156.0035916482011,-183.74178084295343,-184.06581983605975,-154.08631062259084,-121.19698931905359,-119.04314190782631,-126.64175527892021,-115.67057800760628,-104.02573798529922,-100.58899994554163,-88.96780954511547,-78.48445265482475,-79.01163215092721,-69.3275860162961,-50.955368338598106,-49.584823648046424,-52.5973403095234,-37.97145004061314,-23.76015189113039,-20.9774942977442,-14.910817926699384,-11.56595309029883,-17.35010613988139,-8.956750440787513,14.686060416331266,25.45178888407752,25.749334613970596,30.49586132899897,27.795227877339926,19.889884652510528,27.192747261693654,38.698070390083174,40.800937982804726,52.14730725311455,72.75901729962415,78.1831866273419,75.7678293501122,83.04424902312213,89.92216084411005,98.85925390869339,125.63098991815198,151.99631885160534,160.2840305683294,170.886723569926,187.99132397640142,189.47367683375558,180.95818481249796,173.47371982569183,153.00245893609699,127.68430756340729,122.28860006905423,123.0301361100185,110.68966551171624,99.37999828871878,91.23362972960477,71.99764923516204,54.45956116716809,48.76677668417861,34.76662453332576,12.171172682580423,4.026261262348134,3.476304302267787,-5.806122612549466,-11.862576131562701,-14.269176827593874,-29.71087410149177,-42.295135288738784,-34.03690129002481,-26.482388317606265,-29.483059629939046,-28.29599508659114,-32.84565108399719,-51.71702195901269,-59.12638321063751,-48.22046694045363,-40.96732118910164,-33.72313234303553,-17.7209812261832,-14.025271242869948,-24.65470492691798,-26.040319162913928,-23.810056569905154,-28.164500849730764,-20.1662132941392,-2.027632800405013,0.6516464040114713,-4.705502183895865,-2.908536860591709,-6.449523359567452,-10.477438219690171,5.666540600593941,25.786190609593692,30.141693477275993,33.84233718004559,37.46904235075052,24.06526418770163,10.469595946494552,13.986422825875742,15.297756658783166,11.326688697279714,21.111023441504074,31.528407288538016,25.71015163531391,21.431064067149123,22.145954666919085,12.572248895173555,8.847941858885017,23.622270979196152,30.85633174182783,22.528126657023893,18.13310018695842,13.836216129782109,4.923666348568011,11.827005619552864,29.174300827916735,29.94992929867591,24.139582820074764,27.97883460697803,25.613647642496353,17.06819242647737,22.184509600826168,31.275324651509536,31.958407982805053,39.904905226214225,50.80481339908938,40.73468471420539,21.79669220094576,14.605043268644383,7.851763722426485,0.9869779980781934,10.285738082052303,21.9380146651829,19.938122052420436,21.02644457654376,25.696681186439797,13.987999552435102,-0.18137715863213444,1.2341287244759669,0.422658696490233,-6.614680136283239,-1.6059413376115539,5.608326524313207,3.5353326610155147,10.182259616272246,22.401997263457407,17.268601334427935,7.6242588395245505,10.386617529176084,8.250142392119711,-0.7278330299313724,2.668741607777125,7.19022829280962,-0.7773491357633073,-3.0993098376081685,-0.8135184299358809,-13.680891377781732,-25.150323928956883,-18.48202101876892,-15.944871737491246,-24.746044037752252,-27.585349411834187,-31.324229353085844,-42.01723513971036,-37.99934623475056,-22.061665460208214,-20.38057425177186,-25.453436154030687,-23.261360829228366,-28.524619755831246,-38.82519920837214,-33.406381328410774,-23.719726893514192,-24.964515282594522,-20.884544471811594,-11.637190328020724,-18.376164727934444,-30.38662584585674,-31.474808716527363,-36.46560571513125,-44.856657738122365,-38.10090576409933,-30.495344594235192,-38.18132732243967,-42.25643978443152,-37.19234318474777,-37.5803564070621,-33.82138533043287,-20.006243225496043,-19.2578879151774,-31.78862138254207,-33.30122729175543,-29.028614281772313,-31.146434218637374,-26.465224361909634,-19.302857489415658,-28.905941828723016,-39.71669114269347,-35.044371122027286,-33.80999236092827,-39.897570424095534,-34.88157185267873,-29.45497807701058,-36.51877605167504,-36.56127833353249,-28.161525641292883,-31.400562137676342,-34.69194449096966,-24.766721248836916,-22.944745329278668,-33.68107517303441,-36.481420725895845,-38.13952514892669,-48.426092778521564,-46.37622837538501,-30.97380573209675,-26.322189692287637,-26.40377443108948,-19.943917397252484,-23.70709827504937,-34.421020631539164,-29.36322233126223,-19.584635261512013,-20.66178371435155,-18.04522831140794,-12.550745800668265,-20.654246092379363,-26.929839451792944,-17.163373083315197,-11.71331530377437,-14.976199963470242,-11.427034152395688,-12.539054412970167,-25.529406122697,-25.487758118587266,-12.36986822637909,-12.266365438970244,-17.458930874844835,-13.683498149198545,-18.134274367987892,-29.716768388982317,-26.398618266941458,-19.84202257754408,-24.372903463980084,-20.657123236352994,-8.727803072944113,-11.865307353088168,-20.322744463684355,-17.787858950616112,-18.694539564016576,-23.719054445704963,-16.833556236977415,-12.018888224499158,-21.493545242919154,-23.49860838809129,-14.456592651231723,-13.36659844056676,-11.67278658935786,-1.6540398818529556,-4.565863502384945,-16.604688403828753,-11.832593543774003,-1.113378050237324,-0.5721712014417666,6.1064390127094255,17.917074899164017,15.921695470052226,14.27768433815779,24.7327058227613,24.071268547359637,12.181681893310966,13.948611429625824,20.737112318228043,18.004440068695693,20.09984431179605,24.546412895309963,14.976808176318409,8.328666459407852,17.30690785887814,18.749007047416267,9.585393139452814,10.68198553142479,14.354693842637975,11.157691138873467,18.1793972155529,30.247353198014004,25.607755945933583,17.94717626563571,22.1179619234414,21.10515250862955,15.130721779700533,21.424950882002598,26.04495523281305,15.736142817712965,9.34630270703924,9.93957663633829,2.9121406736820523,1.0064406026641048,13.309152655153978,16.7198527879902,8.306069005401138,8.255722578152323,8.889554566672954,1.6766126242064021,5.881634473044335,18.53791300892048,17.105488808530335,11.709513724638683,13.651700725904146,4.604947383748844,-13.22051702434569,-17.910537568942495,-17.555422460619596,-21.625336302244865,-13.799127641140679,0.3197265626092509,-2.305322316759754,-9.827572012849936,-5.096710628581861,-1.8550531029243376,-1.6887193513994871,9.781695688257228,19.22038677547962,16.3547227855577,22.88621072343633,38.787425326813334,39.914871976670234,33.11112424555655,30.313145569985316,16.37831930111481,-2.860646955666649,-2.9415289236620157,5.72322633816232,8.207268027786132,17.078833163262573,26.10409326981591,16.325355624940485,6.014290773485294,14.221052742233377,23.864779538498542,28.523634133123842,38.36685487978196,39.85499959989076,26.929827818570836,24.14032221072133,32.91679907173484,32.01791877451261,28.46086115055693,32.50965914929162,28.802499180392374,19.511881031062472,22.24858126312312,23.945423956971965,14.55637132112718,16.675766154246542,30.577736606502366,33.2224438983169,31.171714874358642,32.33595763502629,20.69077432038145,5.684059511307197,10.06230780102265,17.43562890997653,13.01494617823267,15.687790317216017,24.533236007029316,20.451763623979794,14.643753246329737,16.359283774498063,8.439736215637485,-2.0794210973613554,5.8706741553759985,15.428370507855057,10.98094779576981,11.721528812403823,19.710819458054214,18.422809611621723,18.262049971863384,24.533664189026695,14.861183511802578,-5.2736395509580705,-8.628673454982396,-3.5579121554531303,-3.8467056418449816,3.627614468346432,12.571351473173765,3.8456133762121274,-5.938111135515185,-3.2857060424005637,-8.973335269172903,-24.423599857598663,-29.62764854712836,-31.136732201375946,-36.350484836162835,-29.46581200093166,-17.032985275446855,-20.227630898593404,-25.274132889012975,-17.339714855100873,-12.588839693580992,-12.074804760491997,-2.2273232148559106,3.0865752655345426,-3.794885504832469,-1.0716144884206615,9.709255335071196,8.455161913003804,5.850055444766692,11.303641720478428,7.785405522326833,0.5156923614537163,8.395201907111478,15.381955773884828,8.052692369431572,5.376606655736284,7.998525163196267,0.5013041549687598,-3.797046849143619,3.3754998827037426,1.5862623641441882,-6.507155627950288,-0.5562632938018615,6.668635933251908,2.6577858646462675,5.934202899901644,15.065897576813512,10.43376448719485,4.053854829724102,7.134608747858783,2.7887181230437723,-4.5583026998442735,4.085522937935604,12.628904484017301,5.5037478046478725,0.32557042280687326,-0.9713381289247082,-12.515138158002335,-19.225482313540837,-10.837835617870187,-7.626307509713035,-8.570916254690875,1.5653285670110098,4.8257175662488985,-10.191063662732633,-19.697993497292362,-17.46900873321601,-15.97677159085424,-6.301898168732646,9.994040887281857,6.418710653488503,-11.390390449179293,-15.839343703073236,-14.105346760338069,-18.24676435388476,-16.064085268422193,-12.874574132668563,-21.239434957749882,-21.30574097776985,-4.938939572202588,0.5169550734809347,-8.286937766288718,-11.009855428118966,-13.684747443434713,-21.2577696318912,-16.024588360621497,-6.358679394020854,-14.729969391525781,-25.717419113260362,-23.1789769778459,-22.19920808512898,-21.333235656041914,-6.255804810390586,5.297951371526336,0.4203043122662655,-0.7318230060910633,2.275833820485869,-7.001616670776151,-13.710301853298942,-7.499765442400664,-7.817493542525153,-11.094350038102029,-0.800776266571205,4.361010447456451,-6.813588508783569,-11.084932951478436,-6.790480363319775,-9.846192377697697,-8.22447692227396,1.8114724999452672,-3.596138015261797,-18.24268452109137,-16.40777013609729,-9.622284314359572,-11.964451894425373,-8.121141010398425,-1.9294753389561374,-10.296432315927747,-15.637049612240713,-7.012890926610781,-8.484393146348244,-19.962032748443303,-19.957932551628193,-18.20071124539065,-23.363374723449844,-18.24398615000557,-9.04667210871662,-14.294532253418065,-17.46374104817863,-8.11755569879594,-7.292373456780982,-11.793879000320647,-2.8317471453276335,4.097667535855148,-2.07450104558019,-2.689039768026875,-0.4917469414307052,-9.67108649557431,-11.691363100975277,2.1306660782550857,6.366371038818452,-0.23094813495896593,1.828713753621574,1.8638731472515642,-9.050589879685257,-12.637201369650738,-11.588817435705081,-21.167042844325543,-25.316675622383578,-16.653962745493814,-19.171132935079928,-31.389671966572266,-31.52737512114692,-26.857302232108406,-23.417454299634176,-7.104398341822868,9.09044600775284,3.9981430943195577,-2.0233967351844644,7.81445423680545,15.790822411502905,20.644828642141228,32.058797230565176,31.61980640730721,15.34979646954249,10.706267114568375,17.482555499470656,16.789319835018055,18.13107195785154,25.228280986659442,17.933301730927507,2.455579903522647,1.17577959385073,5.033444689381159,4.562840934016981,14.24697402861169,26.781069348805246,22.103281180699565,15.857299045519895,21.429017552720282,18.88599298862484,8.097122928512313,7.974536563771416,9.054021246897666,5.427171765311562,15.228155627991326,29.47938052110177,25.83763705463629,19.328748296012083,22.827525216332898,19.106354619618443,10.57707802026248,11.666574800820648,7.248144839931925,-7.162155131433341,-7.462038719662361,1.7325620669458281,-1.458541950263581,-4.863830986602787,0.8370329361442339,-1.9936205510865646,-8.043962217262184,-1.0978821306767794,1.6229136554988952,-8.664724472473164,-10.870193808504332,-7.623757165669744,-15.058658000614384,-17.757125167309628,-6.584898834795884,-1.2273502410669832,-1.1950783650480887,5.876535964818094,4.544848798778869,-8.82489226187175,-9.951729704842286,-2.81701218094549,-6.593876893618316,-7.3924929633725345,2.6278302926631554,3.407202662065724,-2.3340057577211804,-0.008683958089640065,-3.7386893967106047,-15.745102449677518,-12.66220725034659,-2.0351103500899805,-4.565743290389795,-5.003724042246809,5.588316422082752,8.021733823546057,5.822105412500907,11.891311571658084,8.21458804436834,-9.066073527874252,-12.58117342814298,-3.4915010689550052,-1.5508173520726152,3.2379556725910748,14.443210003330702,9.934455208358537,-3.8090975775580893,-3.1392694544420943,0.29171263832565864,-4.682090909002143,-0.7540012166840557,8.086114218453321,3.920059917653414,1.0617655709614442,7.674870045579465,3.0043028559665177,-7.682601569823485,-2.6729919154847037,5.37799504265029,4.608046347254131,8.381090826387318,10.103388646325234,-2.961658969546459,-9.880139045738007,0.11864915417120958,5.849967078548282,5.638081219990876,10.878392965911756,9.178525398858982,0.5709828997274071,7.569329870357027,22.331216501491518,22.510547171418587,16.404920603021846,9.86953765180939,-6.83465407222677,-16.68430797055705,-1.8637553098427473,14.712629436482244,18.165857154072054,23.06475532384627,23.63820538768159,8.792905273525589,-0.011503314423836786,4.361694801171675,-1.17021961637791,-11.592261524130496,-8.211847523669867,-6.305588626219869,-12.994324269099698,-7.717678909047725,2.6688939109400724,-1.700713193296076,-5.878829154754755,0.18016914599419964,-0.42264560178822297,-2.6415477571288273,9.0238300522051,19.821835609168602,21.752104725488763,29.926919490454303,36.129723652683204,24.520644611284936,12.602500127996072,12.364421100782348,10.097044238611495,9.628694805470587,18.807639681709695,16.73078441962941,-1.09912035618179,-8.154173189505805,-3.687857779020806,-3.649731349896163,2.07220616312863,14.220453338888957,11.6449418463036,2.5879680701871726,5.935271507776566,7.446854056407869,1.041661303861567,5.764355321081109,15.670535697098014,13.876158282311838,13.680251101536602,20.651962218177037,16.904614611586652,9.670080908969698,14.550431165495864,13.101467679786296,-3.2551957167934322,-12.331428398224386,-14.617691227525999,-23.222414146516048,-23.333888369059995,-12.368850487811631,-13.111519186141749,-19.49022898132036,-13.260894961638346,-8.032927249773502,-9.76861951432952,-1.7720391053985671,6.703527817085681,-0.21002739218834066,-5.282797648600052,-1.7686573494472138,-6.3492537084573195,-10.18705103563526,-0.142590974548213,4.302420555863308,-2.6618432341320073,-0.5668452223356271,4.849147900397558,-1.1411599179618297,-2.826429183415236,4.745921603643004,3.3637860207590404,1.1360616209950605,11.936741646208617,14.971223589047147,2.1193199484804444,-4.352364267980398,-5.376315911889907,-12.787107848439994,-12.352290564001636,-2.8499922927253873,-5.062663137977808,-10.976007782122535,-4.017042149378337,-1.205945174605688,-10.021409278821839,-10.565458851030327,-5.2977859306642365,-7.041688184117505,-2.9532282480918766,8.063475448475074,5.4328940282095814,-3.50272883949823,-0.7225892239841585,0.46195352169758386,-6.389577619511365,-4.177814163741194,1.0510486175438505,-5.304356803849785,-9.445930628591135,-6.9903263733258765,-12.516550482792129,-14.353664848450263,0.6705373194252378,9.456127432214,0.5893251373304222,-7.213380121196461,-13.079049514274214,-21.890090062787955,-15.452760836591846,3.3416254565419807,6.76852184475141,0.7866073115648122,4.9296923475718595,0.6946067592766054,-34.74163102948032,-90.49083084942345,-142.33711885353887,-171.5638538000597,-166.36267050073306,-130.08549278160274,-93.71594184543201,-90.88499482954742,-106.43753223825107,-102.81741192822754,-86.94587777074437,-80.06828075967788,-70.98193927396932,-56.9679201100254,-55.317183347110245,-57.37081346830455,-50.380682005494045,-51.042287234687684,-57.83249505891881,-44.65203049967279,-21.808742757693516,-15.990251022452785,-16.88343844690814,-12.06149842026796,-10.07493040880973,-2.1920665904649583,19.337628903240415,35.264085850438896,53.57136191711721,104.90793084290945,170.04969335803435,209.13588076013923,218.80923898615367,202.31459101266208,165.77770000374187,146.5273573680093,160.4955121389451,168.06277983420122,148.56942480856506,127.50809510528215,115.34125205936637,108.22839886986431,117.29802798652173,131.97390199138138,123.5061616665277,102.68928567724646,93.24014477782276,84.41678807055224,72.55013309391892,74.50939480510823,80.4970345940335,74.63371827002568,69.90405558359362,67.37356560179134,51.38609842708,36.438278572303474,39.52534771050772,42.35945549705251,36.89554813189946,36.7462822897469,31.870116298470712,12.465290249259656,1.9632530559064376,7.170340451945923,6.887517427446382,5.185217218301943,14.07438200678128,16.719396138986188,10.08968691983846,15.807102014766697,29.447368100259695,38.94181610831083,60.3155695673032,91.45399956609891,104.0480032455817,100.72891084654663,96.07656994870699,78.78769415465122,54.841330899328945,50.71971113554201,57.90191605354661,56.62432531589767,56.198120404575505,53.59600921365963,29.97422538144069,2.5640509557764286,-6.489691502371153,-13.651616195482625,-25.13691259216467,-26.35671051899746,-32.32224478855066,-60.014904424776006,-91.42350688391988,-120.61817792731706,-159.2351630501826,-188.52603203791773,-191.7555494757887,-191.71686452233314,-196.79939378543116,-189.46340225131277,-179.67201575206352,-182.95491746717886,-184.6442989428393,-183.18383119365737,-193.8420833880025,-200.70213946300933,-186.60709710653606,-172.15451249127554,-167.88782422895855,-159.46653353602167,-153.0928930655943,-156.3827845145479,-148.8262159731578,-128.86310512345614,-119.94598727736089,-115.83334300290468,-102.08350618716018,-94.43563603621071,-94.49986872107281,-84.3922309328968,-76.56667139470268,-82.5035229228503,-77.9729277996255,-59.03296460415588,-49.81194139827947,-46.72083100707304,-39.37469526633235,-41.718771656279166,-48.36008470149138,-37.073304413063425,-19.646179130646303,-13.679417563880415,-6.107062282240298,4.198216594358091,-0.4067831745890418,-8.145981265523199,-1.5897169234143123,4.172137954123552,4.41131163777679,14.33986770368374,23.352719810227207,19.339115624618785,21.80852473775507,33.81890069614387,33.47470665330127,26.924041506043658,28.91723421388308,25.586921471406107,15.246986038695363,17.03800359667573,22.346758131216497,17.255129237614057,20.550009358019818,36.9821582624038,45.77776338086525,51.85367475019007,64.2706315886673,63.125219074853945,48.34377402344481,45.75883441117044,51.431078502609715,52.24032941748424,62.29086769564002,78.78251691078057,78.5232076363984,70.2155536911916,68.1345041916306,57.90050810923832,42.96485875396821,45.00108357415626,52.61339908531921,50.58129649900176,53.46541667439871,59.75382406549948,50.96840089153522,39.97090461960404,42.92935017352808,46.13021584392486,48.217453806978455,61.678428325748236,69.70089414956459,58.333376287793754,49.71207578408267,52.81992853911378,52.791916055710864,55.05277717484576,64.76826576023794,61.84109954178299,46.50663280599318,40.90620387295718,39.65312238464086,32.64508466887257,35.39612480315224,45.11719988462116,40.76570509194597,32.23733520520464,32.69013000220049,27.840266095793943,19.864891623188218,25.43994591349258,30.486740596668405,21.93340717667359,18.43063262763392,22.89896952401812,18.863329093424838,15.130997114642884,19.430409969491635,13.277706733281164,0.9843457940672229,6.399302535868539,18.126438201513057,17.963923899713766,17.237998454343508,15.806652528662227,2.9723314696788123,-2.5904060216879055,9.380265375310113,13.027200203009581,2.3653706046936227,-2.548825718851721,-4.564642879360423,-8.973249705961942,-0.5117993408609451,12.46518428090953,5.636176371676579,-7.790664345223492,-7.7116435295786,-6.48613140568917,-7.119198467857589,2.0796624446564396,5.721597999360333,-6.9272257783068,-11.760773078700716,-2.884256885306483,-0.299219696280161,-0.30619968331941494,4.322992348336243,-2.2615933833093314,-16.084939437272322,-15.452093483462138,-9.26012940110257,-10.815341854553592,-6.53657691693176,1.4581674838540524,-5.458806058280338,-15.870022090798086,-15.055911774664676,-15.712607840239178,-16.843284842065884,-4.951031820069495,4.44194190323186,-2.0964525174617585,-7.50710701981596,-8.648928137057412,-18.90253869116089,-25.97651034374515,-17.78233515574546,-10.860823561239751,-8.865763271743715,-1.2817395378705791,-2.324530666064093,-18.304357976614014,-23.60361085060792,-14.66139834080436,-11.384540799759353,-7.714410408703086,2.135952081915026,-0.7789944910032394,-11.357205699505055,-7.269356985037036,-1.0993202169980605,-5.79873310861168,-3.2416777924374593,4.286477448923242,-3.096622817831756,-12.511717576136922,-11.750039473290908,-18.817524653600117,-32.10329222278033,-32.36401329745863,-30.54877830722465,-36.46676581647423,-31.027259323300424,-16.152702237932495,-13.69594940556043,-15.049809638850839,-8.913510479635143,-10.703550347717801,-16.71363091451384,-7.458705029425278,3.390725954703381,1.2118204792157303,2.4554407272132637,6.28666326850899,-5.123250325922625,-17.55726490251072,-16.057289228191106,-16.75979065457117,-20.371270032179304,-12.339880676999364,-7.057525381231402,-14.683239901909925,-13.68519435048142,-3.4749040651753687,-5.334242321070642,-10.481389160689037,-6.005747555510189,-5.693064971100436,-7.499751864910447,3.722877967070059,12.893583730161026,7.72459887033564,6.601001013264549,10.435514714105905,2.270662193680639,-6.552413316032817,-3.3551122741494988,-2.5693936875456007,-4.3640981745292455,3.1404861351172975,4.009906075898163,-10.939285619196653,-19.341890866051695,-19.351148285078814,-27.462698759763235,-31.016816060033165,-20.610679096226136,-15.732241223864222,-15.85849973418087,-7.021874271893852,-5.107843752173962,-17.051014863143806,-18.197851659875884,-7.965723715125923,-6.711168867115157,-6.458125960432075,0.5682822745306861,-3.4638251762203915,-15.17915731001052,-14.36914212328972,-10.664355884467588,-12.315712855906543,-0.6274142749081095,20.357813236921352,26.09303482072072,22.90088618865715,23.649977169700442,18.20161651303495,13.378982502863995,25.958037395031948,37.56799840545981,32.51758705118409,28.065902955404184,24.623088393012228,9.413485274672132,0.9398105316202583,10.353685524658381,14.990089416262744,11.879081632182963,15.875365936725194,15.668349587256024,6.43934035276514,10.506266948971362,24.41990602207168,24.617027994979477,19.48293036341943,20.352699943872658,12.97425340375107,2.1803515907263655,6.732262528913671,14.330496821495961,13.054768386362092,16.40795054131376,20.35415078708919,10.200725063911591,1.204074379328612,5.300886721921451,6.169575798040692,2.715221540575886,8.381315349470935,12.978820078641876,9.10443007846883,12.341378037762905,18.79506878931056,11.206230153690594,2.8174762528648962,6.575726286210633,6.522920630629796,1.3466295704007325,4.39732821767646,3.8056326795333706,-6.149063535317172,-3.1637619574888523,11.390746332388009,15.290448278401655,13.83486387429825,13.204129351047884,-0.721288363061265,-17.572343925273692,-13.96337378975204,-2.205378292000537,1.208592643108151,5.772444999298069,9.189798204715782,1.1043466918123475,-2.2004921850579287,7.4588451856199605,7.798739976115044,-4.09098559445286,-11.244367301595275,-20.877167307278565,-36.40317531482883,-36.0243712509815,-22.265770777041652,-15.515258412470889,-8.259206495736347,3.6582384399203307,1.9825861709768682,-6.63464950159662,-1.7857454730683275,4.031763259189918,-0.8544560314403049,-0.20848795774091444,4.78382196665058,-0.8226901822772072,-4.0761587907261605,3.155624086596422,2.8334354122121286,-1.5630893421592225,5.997210752788776,11.115209997770812,4.807181970455284,5.244881609888948,9.866266674128154,3.00155861027811,-2.068212787995812,3.1018205480660352,1.030926924415657,-4.723599383595875,1.8256782111930274,5.877550950595884,-1.2371923993865037,0.7808345286220142,8.452272887082632,1.9733837556336904,-6.023885763882338,-4.045772082080659,-6.860703923098743,-10.351382483368168,-0.834890795276165,3.79617985824403,-7.309587353000518,-14.366240826836304,-14.935215728703024,-19.965445471957057,-17.533415665399996,-5.386496617527492,-5.742152124933909,-16.422651457014272,-18.09972501231998,-17.66907427185813,-20.401631842121542,-11.419894772502797,0.6118407170405127,-3.604827367590731,-8.643883998699199,-2.489420908301202,-2.820087218567669,-8.157208992238987,-4.342473796426155,-6.0002332917459995,-19.041011905895854,-20.185700391411178,-10.43139998061506,-9.499057586933057,-9.350172025823005,-5.078549161627761,-14.007829038682738,-26.841097408378317,-21.373545345756774,-11.80586655825229,-11.51361465241625,-6.0436002942233635,0.43856351475170285,-5.204222263792717,-5.2602206103125395,6.732284640762528,7.418302293419613,-1.1664415369059742,-1.063988082534542,-3.725780202986626,-14.75614799651908,-13.732816212140069,-3.4586593153805705,-1.090669802279213,4.085389301415622,15.198449272959273,10.064701258927824,-6.583518462521917,-12.351199361394855,-14.843246393467394,-21.838168196090127,-19.08040900317716,-11.800714925305925,-15.625737538808497,-17.19751346072983,-8.601990240463747,-8.997614992938988,-15.97062936952418,-11.401824708686721,-7.186201362809268,-12.25477133356148,-9.354666403187489,-2.7713646935324663,-8.111206475688114,-10.033184385713916,-1.210168341019604,-1.3708710857213389,-6.753589668608174,-1.2751039597066027,1.9758302053498327,-3.3848112648029263,0.039976563362400075,7.265950930987778,3.3549484124847604,1.749170613989037,7.420112289857435,1.2523432377778554,-10.781600065801042,-9.292705119957443,-4.715290947645845,-3.738932748937849,7.685212100626021,18.50829987396253,10.093670458599988,0.9118982155825806,4.55389822056042,4.3183735046721425,1.5509859714646084,7.549729350235888,6.26583738837603,-5.65172277375502,-5.8676610213186216,-0.584370252229482,-8.659543499200062,-16.52323578582938,-15.939057335093501,-21.82321111097732,-27.55097834816236,-20.988143507265946,-19.613110908248544,-27.363659168565313,-21.32580889785974,-5.1491468328391115,3.02282862224558,12.966752645384371,27.607568854433993,27.230135946197915,17.634509432892422,16.926367923966353,13.800920157105004,4.131847038742825,7.732311875002673,18.06344700437354,14.467744675937873,9.410665469142263,14.125104509172118,13.531425950024257,10.985438239962697,19.860979044763837,23.491450044936737,14.252801453174387,14.252088709785944,22.89485855383903,23.658371400847685,27.056208842918487,38.221375825444944,38.668132423795655,32.468501648865,35.765033418932106,36.11826860287422,28.219870745344878,30.991587713676576,38.82935284106377,35.4078987394884,34.599376232083735,40.81939278659265,34.09826848051573,20.687211610751042,17.422636794757043,11.314113515376834,-0.7039710450220671,1.5012945155616682,10.166274154004471,6.6610871280950175,3.9546087311890914,7.0101764105679445,-1.5056335393056361,-11.945618326607862,-6.6133929948145935,-1.1764998729426526,-2.9995544715617877,4.123725811703185,11.396577487386665,2.7458105599863503,-5.539805496845411,-4.888002392888345,-9.408953038067793,-10.920128643183173,2.6290213538332683,10.37024919887316,2.5219223689767385,-1.2905567084061593,-1.295646467169945,-8.093096999459378,-6.53481795137631,7.429079961340548,13.064033246188114,12.817316102294981,19.484075612179215,18.31632400814791,5.135868369564368,2.1353276435574324,7.953986512906823,6.61597102080715,7.096894248215245,11.578671927183507,3.535181466954463,-6.7035225514893515,-1.1791984372068698,3.9655367855497836,-0.790696375105195,0.9802511635330944,5.554386673624026,1.8558621271393225,5.934013787212868,19.09881380963502,17.10220911895476,4.586493643746702,0.3506993202849997,-4.633124301620567,-12.1146334601277,-5.478565535662131,4.295798282427245,-0.9899694523840403,-6.099788286740869,-3.298012592837763,-9.835923495979749,-19.681317742581733,-17.073820223263752,-15.540722272369322,-19.93158942411625,-14.292911332277763,-8.855756579672743,-18.376572556380776,-22.972597835107692,-13.600418893615299,-9.371384946610377,-8.330736983528123,-0.10729874837358055,-0.31832470704485405,-10.258835502337396,-7.805022006272488,0.2577261789351857,-2.968589972443005,-2.483901807505028,6.955561171133008,4.779575312437085,-5.237876013143079,-7.946738900127036,-14.623513519485217,-25.66995742114439,-20.18684617047639,-6.646330277818366,-5.797599099548688,-6.145942197016068,-0.004109543811955607,-2.1108928473837363,-6.470283456322484,-1.3159483214689738,-3.8608810043787902,-18.33549973953067,-21.740409735192436,-14.51048419032581,-10.178668779965529,0.5901564898541385,15.61089032766075,13.636483542541638,2.617194092180119,0.32550771373630427,-5.1090212647565085,-16.888267291392214,-17.356280810746934,-13.178830174129583,-18.101773134704402,-17.973978392765343,-10.047741969165159,-13.919800363389538,-22.284186639235674,-18.28169261668461,-15.757428506057312,-18.947824864692688,-9.943564360396334,2.59121236840923,3.019364662486429,6.265482211137651,16.420790485882247,14.944644260151826,8.378344118641142,11.336895941659883,9.768456392244474,0.3049012989060649,1.4294204157570198,5.815285175166076,-1.1578566869960674,-4.059601410901735,2.6887236903220892,2.0734844870072866,-0.9298743542800987,4.625902768606415,3.6029813464955005,-6.0564172478548715,-5.0700052457231735,-0.45084845305878596,-6.047795576055077,-5.783338524673686,4.7199501548720235,6.942083994859345,6.5695197836182215,14.425023080563648,14.02067895795781,5.228547551156857,9.889632972464655,19.29794917300912,15.712271308902526,12.436364608092134,13.811300815233851,3.7416558818209276,-8.499249574445308,-8.105956382147824,-10.560546497246854,-19.39488766357713,-15.231495368440104,-4.818418720587807,-3.560446020457053,0.6735225508174405,9.926482765640936,7.499966883430357,2.2137732829889694,8.206750234798177,10.54967010577472,4.957524031946355,7.637742626333767,10.762325647975002,2.0229086023421115,-2.2554974921109165,1.250643031612177,-5.575886007741864,-13.781746715870987,-7.994078337116268,-3.421689407835702,-4.880169963714431,2.627021168430632,9.10788200134904,1.8251550076244483,-1.9239682164457685,2.2464057441216814,-2.6644915210237614,-8.58258533636826,-1.560480999686225,3.6802318484957706,0.8654925659922736,3.196820000996118,4.719080132245914,-1.7222312187740858,2.1160680067007798,17.443919236588464,21.240027672243304,16.30237197136437,16.077697679550184,10.271898021855701,0.3468491735527217,3.0704980642851902,5.984704388442096,-5.373651398232163,-11.527897498416447,-5.132772766741705,-2.686155544069103,1.2428574048023862,13.239556594279025,12.152738222716561,-3.496290020726831,-9.019256449610165,-5.750714262818121,-5.864363461729096,0.676494927018366,11.192064838364521,6.282207454969355,-4.6117727800687724,-4.625058248224326,-7.09571607443497,-16.46757159990216,-15.154694249040976,-8.252807583118356,-7.322250963313229,0.6344200740961345,12.661219417775381,6.52400699829778,-8.427912862753379,-12.737278106281172,-15.934521599640016,-20.67117918204228,-13.92358110207163,-8.143614408209931,-16.771988546789515,-20.60637239800714,-13.601557234216898,-13.47436952363312,-13.77310783560933,-3.6662985454893224,-1.1261883793551748,-9.652808326324008,-9.49114189248132,-5.805773277545278,-9.2240570583177,-3.5198175081856515,11.248839032735304,12.809571895154281,6.03029304307208,4.634118846886602,-1.3573204291045506,-10.257494658813894,-5.485744738679807,2.441191839665329,-1.233638823056332,-2.5301778939531867,3.5639071576574524,3.630963164352675,4.3450658214102775,13.066497848412126,12.201238526312213,0.6517702210301728,-1.7655899643867634,-0.825476673530639,-8.650082126244346,-11.455542916335718,-8.021035502995765,-14.720990114765042,-20.913537141431046,-12.902736280182577,-7.989398343681357,-11.459875369392119,-6.194703079875751,1.326645158425707,-0.8526991863729418,3.080188710234369,14.895113146440826,13.928573562475666,7.900768364153378,12.665952232622486,13.390632511778987,5.312374176214247,4.409227066756946,3.633213244768271,-5.127584274925167,-1.893080624766791,14.565919919911336,20.40013798097471,17.34931528466964,16.14510127933274,6.797406963105777,-5.222470696598905,-0.9395265759713962,7.443301722088503,3.8452229841778878,2.1806612208055567,6.380082457017288,3.369545622423722,1.7945004536893807,8.614544963767669,5.489838137760717,-6.470827122953418,-5.283541083900904,4.142228522911598,9.909727208358161,23.360255130857556,41.456727129414055,47.06178080272336,55.08004489176074,81.93919291676399,108.28808183343892,125.10806223244715,142.53241171551764,146.5812863734998,126.66238754997453,106.25692520376577,94.07681572728931,75.38440202593137,59.63525138552327,58.60540201835486,54.59478453179673,43.954063774918694,41.815610374598684,37.11000589262536,17.40625610757001,0.3259761542791635,-6.824103524775193,-16.510029299359186,-23.129058559139757,-19.74315387339428,-23.700084458690046,-36.801109673915775,-38.15186935248673,-33.10560751450249,-37.60080485312399,-42.215649229963105,-46.239263233307554,-63.121404473575325,-79.44271389573092,-80.01860583389325,-80.88451086568179,-87.6060734038392,-86.4877652401638,-86.77370365679758,-98.9207307543675,-105.25608977752731,-101.50261380524704,-104.06931048484728,-107.84966062460305,-103.951988474836,-106.8075201555113,-115.8653226016791,-112.12063408753608,-103.91097109616085,-106.36400488731073,-106.52301645554283,-99.48199826583327,-97.03255482329511,-90.33013727956666,-73.97340030663749,-71.04446936909841,-84.19016563568657,-90.1829325359038,-88.69739432504095,-85.94663273522593,-71.83254596027757,-55.928011794781796,-57.90742143666708,-63.20481482062938,-54.972412432166706,-47.11547545568116,-43.64147902845136,-33.89694593465138,-29.623465599855066,-37.454847111686306,-35.45839324883829,-22.19525697981774,-18.654260394569604,-18.02394409823082,-9.961629829936058,-11.463254905944382,-21.187269915662252,-18.053829144159668,-9.769517557349745,-7.0309063655928865,5.2099799964070765,23.636295151623063,27.549868141743545,25.96807664378643,31.629511277698725,30.35785851024483,22.124832910140192,23.578186699126515,25.443500175040683,17.946983874727408,18.32267773400124,26.724318084775575,25.42936474857692,23.42249172328737,29.350833700494356,26.3768746546869,17.96591638627408,23.656602971914804,32.61546942968573,34.05016666603129,44.13903968521143,60.7647197629788,65.89767558118547,68.62562620532329,76.53908389095206,73.11846568153037,63.71765230130828,69.37084977706698,76.84514023774778,69.5797517590658,62.636365423149876,58.048294268658346,41.62205525752424,28.30683628774579,32.473944302447556,36.503082259200916,37.99283020103407,50.80030905204773,58.11729376473461,47.40122348892281,43.514603021107256,53.33686520764833,57.46751308153643,60.15485633517441,67.57067388935968,62.963096317724,51.95434925985508,55.562179088043436,59.91768148237696,50.150196302927554,44.59855590276479,47.429901403965786,43.78789232747357,43.785774482229755,55.21488909617775,57.306296415716325,49.069110501491025,49.20721426549224,49.21824990132466,41.26863677576302,43.87077293562781,54.64820199198474,53.95200722599978,52.33475155672602,59.968690286338926,58.904915215790965,48.909587586985126,46.32372805883545,41.83930730521136,29.53137255597366,29.659352285094457,40.68945844439167,41.369881170318976,38.92650417570785,43.05622354073057,37.25484310619507,22.759179389451212,19.22140722180579,18.8019073042304,11.631444569970462,13.403979294778779,22.25303119044153,19.62432022971898,14.500272845105666,15.981800933971162,7.314025975760282,-7.963225565198922,-8.124271741210208,-1.4705197120674014,0.05433696268451116,7.3535230334322765,12.610442937262093,-2.0840561807031843,-17.573327082469863,-14.16513275716668,-8.179746583473198,-5.2598931438378544,5.44897424507791,9.118075057051257,-4.1094762864364585,-11.597524417403712,-9.07162621262349,-13.938979747284531,-17.71978572594378,-10.88701232712502,-11.007560200853655,-18.518882066872845,-15.785859978675767,-12.933767653477396,-21.39836940366053,-24.367268108118896,-20.734116634547714,-25.816044258785006,-27.654241106502692,-17.55424607169386,-16.543210928864514,-25.520266868581004,-25.509992062766386,-25.45501072075736,-34.89926027136911,-36.904520940113976,-32.22025703572761,-36.167631454696526,-35.601108481083315,-22.157952581502457,-18.87103091184217,-28.957015553986505,-33.20473437196669,-36.43780982622844,-43.190921087530306,-35.394483262794296,-19.36157430195533,-19.992630751512174,-28.793432793827257,-30.57555500796637,-35.62994776695376,-40.379385995798145,-29.7374545803901,-19.48408461380878,-23.29542205461541,-23.180224280069197,-17.453218819857632,-21.982170355879337,-24.64456073899654,-14.39932698991034,-9.670075327111334,-13.285562220568128,-12.028262473712253,-17.61833002235696,-35.820540849505406,-42.71535682235594,-35.765481253501335,-34.715725873122,-33.17699985602084,-23.529270758943156,-23.31651758496465,-30.144513400991112,-25.7859213476952,-22.082272728142886,-28.306597348520384,-26.114673648595726,-17.751289686134776,-20.434362379678106,-22.290177665983435,-15.132830086027472,-18.24520213843067,-30.982211354120516,-35.609540718112555,-40.239246118853075,-49.65259821061959,-43.744029266212536,-25.412640018706938,-16.094734926121177,-9.671172998349638,0.4499013770062317,-1.2491048877545783,-9.414741780459357,-5.225027896018012,-0.5564184727166763,-6.968141155048714,-9.118380770237367,-6.719267867055949,-11.797983452151586,-11.624153549189986,-0.7273066848018752,-0.8775631682058582,-11.477801501721958,-11.23668514011095,-4.83818239483584,-0.22240187487378762,14.030921117260302,29.411779801793486,27.108765988132806,21.28870482451886,25.331372433390452,23.807285765543728,17.22342214941626,21.02724440210786,23.966898053141428,17.74040545648336,18.95556783247391,22.858356239810227,10.844755706195489,-3.424613272299687,-5.633329174070795,-8.176702129904983,-8.393880468536636,5.284414687952099,13.539253240704731,3.651575907847366,-2.126925790826274,4.356580122241355,10.705756980785196,22.32621149568785,37.841628728195026,33.32346804855176,13.140419655998247,4.2611908248984545,4.61659120092179,6.150017645956048,18.908748233929458,32.54897585882482,27.549206010535606,18.663269975141557,20.01261601604489,17.48335006591868,12.053562936071092,16.408715265924975,16.77976100404286,6.730285508248132,6.944327007432155,15.00070787065668,12.368966491594666,9.857263711981025,15.712365397947943,13.159628448698445,4.9726730477613925,6.50890505001275,7.364294382484206,3.3102613934664156,11.788159492283842,26.048135913169748,25.926099715983383,20.952629054586463,21.127547302219014,14.86768463592588,7.490027315698722,12.378228610066445,13.990686316977166,3.5712183436491793,0.7722650783870794,5.733985402957248,2.736962723314777,1.3161738159855967,6.686249789699127,0.4011094564709201,-12.611518748246617,-10.946265642039156,-4.394554677110711,-5.9859320972489245,-4.513479790982355,-3.5831927156534817,-15.421321689781239,-22.459131339412856,-14.01746641440521,-11.865610193973215,-20.38469459472831,-23.490589145629187,-25.947111288609257,-30.586980561817533,-21.075916967261875,-4.91172900650154,-3.6497418333874134,-7.545802197350733,-5.973982621668327,-12.251116305993602,-22.080771133468566,-19.7702260305959,-16.78151095631632,-20.892642871516777,-17.686243864467585,-11.767416561867996,-16.853348084221313,-19.282836166537848,-11.047716281355541,-9.553125755573785,-14.857564419804344,-13.25415123301737,-13.539249216447722,-19.60320740777341,-14.871033058092063,-5.508920576698335,-9.232382307865052,-12.814571251296456,-5.77962475560777,-4.148785500484212,-6.671439421231493,-0.8534859370604893,-0.39091225091296156,-10.442753191348318,-10.415464178130684,-3.692219977109366,-7.738306072069381,-9.566893333193615,-0.8248052888550625,-0.1366922516977589,-5.5113409875277215,-1.7498302652000102,-0.9194676216624912,-8.558707922071196,-6.091689266562767,2.469734299836673,0.6811582242247598,0.5956996920041555,10.320816936960032,12.593690659160732,5.215180223288678,-2.492460757143975,-20.102872546326566,-45.469643924860605,-53.14411440467612,-42.99248165642288,-34.428845936469195,-25.579356452196805,-16.039574668074742,-18.822124412595297,-23.493529907802095,-13.760865412223053,-4.058103217193626,-3.1992531332579315,3.508615590859307,12.277223390770757,11.47092297572308,14.878616729552842,26.056096603413867,25.8303022181733,18.822267723074635,20.54442547386067,18.511650242329083,7.150811971476488,4.2982985108975456,5.846276857164023,-2.4796317124038176,-6.141190009204971,2.1068238434865063,3.4318548774578783,0.08748844495547936,7.282623419350337,12.600870554528928,8.464633019719292,10.827361717002617,14.946195699595023,6.4187102517003165,0.6563097917242726,7.114633629062428,9.763211439950407,11.271718938091624,22.779574902722906,28.53110729015962,22.181533150333568,21.393213275901093,22.83637320027783,14.843765769220038,13.076523155437147,23.402901762374412,26.188181167297678,22.976693902614233,26.327362829264885,22.627140901080512,7.777122715527533,2.690569205373812,5.341078836256704,0.8498740822593143,0.43267885938862016,8.133612264382949,5.710478644931468,-1.5807712888534566,3.613610307248516,9.800150811469615,8.101462656088609,10.732127957581396,11.064851039574407,-2.8714870202573692,-11.991224749542964,-4.546308571616985,2.5288310212717566,7.228627189553893,16.983063704726106,16.458957760865065,2.7588328988927304,-1.4261123628865011,2.5198775796323236,-0.8571097749765881,-0.0951082260046957,10.899127200693478,15.215301714585792,14.402090981705985,17.544642671316588,10.221711878837786,-6.840342163541191,-7.624268844039914,5.885917097271085,12.902546174451777,15.930424844466033,15.632369400941942,1.0251001100818158,-12.187357183580138,-4.7122010865308095,5.585944420514448,4.581243455127013,5.288468467595697,5.858386735748401,-1.9919003968729276,-1.5698544454171899,11.388614835305827,14.907237422091647,8.91688447663865,7.145938028640243,0.8800486414099828,-9.958215030547805,-5.99789640394835,6.306572069358301,8.257355330891992,8.27845813690654,11.551699773114981,5.6905505844765685,-0.45026862595215555,6.735107823975699,10.55177760744671,3.4192126898539286,2.9391176222599302,5.491945836543184,-1.7537976990941884,-5.0707649261853796,0.11252560290545999,-3.6353168274726153,-10.848230708206705,-6.596484259537849,-4.15412037401518,-9.50435803018794,-4.559121764631674,5.881707725529555,4.992164005859233,5.332581934092605,13.243216539890717,9.749084575024028,-0.8994308773081507,-0.9045412437126874,-0.5659748327148506,-4.732381256485341,1.9317762389805666,9.73502616947842,2.2137171240729514,-3.713241855812152,1.9898370393753484,3.439633157817547,2.401824651993818,7.018551945061931,1.335774435317152,-16.18926944010656,-23.849025457920455,-24.78005834761988,-31.69025645354643,-30.858841196035034,-19.41011091430026,-18.037949301931643,-23.223806582615588,-18.68442125878204,-13.688285358901187,-10.708629783884993,5.641062634449693,23.15187788514346,21.389196229681374,14.473380296938696,13.659801292377553,7.139557489662941,-0.24164728880566066,-0.125961589553633,-9.753589589458736,-29.476987718446768,-33.01475322840682,-21.442297484146536,-11.411633683328336,2.9035513894406106,17.900540669725697,14.94137698765526,4.442666887268216,4.365472305709659,2.686924698694151,-4.943090143456916,-1.4387548725616148,7.111335611548329,5.78077554175246,7.3350230143875335,15.29957116185916,11.386081270948708,2.506340536754051,4.6926183723261214,5.171488803658841,0.2952267964223676,7.148157177733175,17.049840867386244,14.139719415847289,12.849439287520667,17.720828849609127,9.666082337552828,-6.601122325218713,-15.802569343997792,-27.642177622540945,-40.95079446466106,-35.330426961906554,-19.85075814512437,-14.472993999447414,-9.385571881334847,-1.6468174304979342,-7.514825883801678,-17.81116633388625,-16.622735948834077,-17.07590522564777,-21.3369690504247,-11.48484137950739,2.404431881564148,3.3037253202170627,5.513251664815279,13.628403534263066,10.756883863120816,4.77449349011287,8.545947336819792,4.421555898855606,-11.793110667858754,-18.653996837803298,-19.67799858938562,-27.65458450513818,-28.490052002906367,-19.770554779124943,-19.53662329992007,-20.310633250396503,-9.929634293826382,-6.179970678129789,-14.117038129005316,-15.294437301129793,-13.547363721562263,-17.526661721401645,-11.889008053114111,2.457330085739579,4.69020754393656,0.7012400791220086,3.442826187018057,-0.5252503010383993,-12.350266290182471,-12.010167790371847,-5.423491171911324,-7.0858010901747965,-3.8968360205878403,5.0872860357490595,0.6286658476668694,-6.779087329192544,-0.6122179286150518,2.4868934262510742,-2.67851074352562,1.2519903436960909,6.705273597065229,2.1891459267225324,4.899506985342774,15.500845118057407,11.530849172479597,0.539580196392222,0.14242021515291348,-1.6596607353592732,-6.89830161859059,1.8020876270987491,13.352885754764877,10.661214891219624,9.407894907606332,15.561510345111035,13.370610526355145,11.620020005722793,22.747697739658726,27.984902956752922,21.773804630248993,22.840520864793785,25.11853863344958,16.657017434759414,13.872457778071846,18.749643096281346,13.068907617264596,7.1434826219264975,14.022167065858447,15.140720728816584,7.506860933938384,9.83560601744664,13.659859029389073,7.445068377959004,6.672880530217862,9.650689243473279,-1.2254578387304305,-11.923214126060957,-8.021125183385918,-7.2224524105502645,-11.979057912817721,-6.911715029898534,-4.0623228461685565,-12.421476629647053,-10.377225895328873,2.5264988263711565,5.010327423140731,5.612504614417466,14.64996109972434,13.331040931435966,3.0011123446982273,5.071921018567939,8.790400466446135,1.9264080502312506,4.354463086151412,16.803402222022992,17.93854952275075,16.40938675685193,23.284223538448245,20.57767907291341,10.20132247904815,13.641762896382842,20.05657428084636,15.799487549304537,17.051827949388322,23.20782766659604,16.244650281074467,8.35466847536294,13.24675284907102,13.214469831787415,4.697050886824187,5.055729956624109,6.138894994050348,-1.9475516281810212,-0.0654372640565235,11.235182586923223,8.290356094654397,0.1746581277753294,3.7759310129103443,5.0009617596268034,2.1534020479578317,9.925699744421205,12.954828085547158,-1.5053903421400419,-9.039135069578775,-2.9892236885181602,-3.7239082837434943,-3.868156654842531,7.761862630186741,12.157326129750357,10.765256007167821,26.42628611812084,47.19899192332391,58.11637697500799,77.67349023595979,104.42124036337556,113.92769877976615,114.64268231465203,120.71831601871651,116.97224639763117,105.16518465048526,104.23063309001571,100.51632096395608,80.41607622105204,64.94634753499116,59.05120333296198,46.11779151985094,35.172289980978015,33.118235464696745,18.693053762423247,-6.427971649652185,-21.108431014385296,-35.0898159870872,-55.6203424167983,-62.0958229560476,-59.42518572110577,-69.79524731963639,-81.02473005992331,-83.00723853981528,-95.58784026042804,-116.06931539262432,-123.5300145277952,-128.5539830619893,-139.9231072620136,-137.3609376570747,-125.48081592243894,-129.54369799901775,-137.85927696241845,-133.8539483312291,-133.36876349721874,-136.94404934393128,-129.2566224937459,-124.53072563566445,-131.41558288332482,-126.7575277499489,-110.58289149819996,-105.03821961793466,-101.94907029499298,-90.3919114321218,-86.3004017983067,-86.62555736638103,-73.25790059633266,-60.621336911168314,-61.14269254950847,-55.47471610542121,-42.88196841617597,-40.5061633598391,-37.041944386356754,-24.561342829890922,-23.80529216705069,-32.185679525165355,-26.863299316959917,-17.484582117840823,-17.198249393384252,-11.529679408587464,-4.9710156149406455,-15.238823193573438,-22.916564934497263,-12.239058461532224,-5.626995385577761,-6.0074584595325105,4.589532109064194,13.475373042202047,10.951405945717681,16.98764489154659,27.529305017631714,21.432335800988348,12.879328214754704,16.537176626008584,16.370903556926944,12.856854220364562,20.52153010308498,25.04076303243112,17.703798866678476,20.15143308594024,32.474791627785464,35.010126687101284,36.160787904394525,42.61158001297758,36.261045212354816,25.426047285616757,34.64284070151085,50.051608909023116,54.713247110826266,61.06370569585267,64.05642290601432,47.96566998801424,34.61748855062665,41.990321286419544,49.13519336452792,50.96046426512669,61.06016045537096,63.94283423314995,49.14442390243002,39.98375446831678,40.767150699259076,36.51168236992906,39.543567626299904,56.26535925145541,60.998587655895776,50.725846770026436,46.08374824173154,42.11677316124287,34.71841811501749,42.406495848894124,57.435422453852645,56.209335128318884,51.0030845194265,54.260170968358445,48.35310339231004,35.321347692456726,33.93558342036526,32.83639724435139,23.385825841446803,24.5246153483504,32.47090100030928,27.467727921843924,22.910817144225557,30.251191132644664,29.81451966513884,21.79786225125366,24.314586002717895,25.6976719541712,17.106702188126732,18.370448239128503,26.893629793461322,23.026970158847035,19.490661559292114,26.284745847320686,23.076188513150704,12.799676323169574,17.309004110711076,24.587685575078233,21.29887150767552,23.33620408690355,27.706453221040174,16.86484498383267,6.671714343531548,10.917744042415224,10.947226177044977,5.831237976694346,10.716077453881695,10.663240851497278,-3.9596331948847903,-9.175104765355966,-1.084260134557678,2.4818797789925675,8.88181755136936,21.204538621381246,17.16599165526901,3.1429131587579633,5.068164737047541,11.918561129764573,9.523447948546247,13.05330743484341,18.823255717171563,9.576957285161061,1.3400678835703692,5.5543883428528975,2.499345475492433,-5.457390797224684,-0.15157687292370925,3.6762491051817254,-4.240921397881559,-3.48688595268826,3.6863802303963693,-0.5005987417645366,-1.673029148773058,7.8277102408242865,5.044747686126737,-7.50968659522543,-8.686704178599724,-9.274508185167766,-17.201839536913294,-13.087439550070382,-2.40769992038759,-5.8311497189499955,-8.635946223186346,0.9797523174997291,2.425818324433778,-5.065884003036599,-4.437676123630808,-5.9416361309595045,-13.496324756643954,-5.7917459619252645,8.482475912375701,3.9848090966275898,-6.302065597685727,-8.472659650203678,-16.455978805000935,-23.81310032271548,-14.459949656516702,-6.521951346961474,-9.727499349849147,-3.746087186240272,6.038866570071722,-0.3027956132085743,-7.824996166075499,-5.283424729086682,-10.368563772076788,-19.95366020144624,-19.01061234373128,-23.042624615622515,-38.11686815759279,-40.02692099487421,-30.67421655907456,-30.585979580551715,-28.838209784167947,-17.76899238710847,-15.764018248903454,-16.610281533912513,-2.514453667550005,8.306423542568494,3.4619046929800263,2.1669352822522585,2.6237207861218987,-10.245300183946647,-20.327697984676984,-19.21652131671203,-28.874314615022456,-46.941083614691465,-52.72231798659398,-56.05714528958772,-63.20477245847477,-54.69685520188035,-38.72662122671059,-38.408769571212545,-39.371980354126414,-28.58931981285622,-22.065993593046773,-17.273274032282814,-2.245954402450466,4.547174431979179,-4.571958486581634,-5.491950342036526,3.0634301434394127,4.355957974217462,7.740767329184026,16.61314993031536,11.248084547396775,-0.8130988409392037,1.736155638295048,5.173385081611961,-0.8658134907094222,1.327475004206529,6.786013116338371,-1.0047536037320182,-5.043327604278467,3.127546085131574,1.7456879099024842,-5.9834330733102465,-2.6364362983512857,-2.6890628160368464,-12.724760443328613,-10.244325327653717,1.8765116225458343,3.0820668741912653,2.8838541701774445,8.053236692452762,1.3250246952799927,-9.887870133798698,-5.8899163115656314,-1.7133402617311018,-7.99929827710088,-6.4291618042324155,-1.1363412869818639,-9.823328947196298,-17.486067648626946,-13.703303582251667,-15.14515113239713,-15.726771925418813,0.14912845429816546,13.090456975045175,12.145198641299551,17.252657415873223,24.549663814065692,16.770749657265398,9.889588399305442,13.828265835258678,10.031822136822342,2.555864958683344,6.748996738805622,6.255356432058525,-5.527547207949937,-6.262661472397465,0.027514661329457013,-5.431290993962156,-8.720846842260265,-1.075590292703633,-1.4474537288920815,-7.555411229681993,-4.924630473304939,-6.966957496378092,-17.100681740114684,-11.759597207801082,5.166041828402668,11.034870039790599,12.828601068951544,16.082880866469523,5.391970731727061,-8.874299205355788,-6.3449809235324715,-2.3806325616920274,-7.164947944394703,-2.697911989423585,5.799569886848031,1.163500126518704,-0.1074950089438064,10.459811869738408,11.215923256117119,6.125339876000657,13.399082469613031,17.87526817527162,10.90532651482367,12.414749539852156,18.20695334149359,10.51050186675688,5.52381893233124,15.405939824291023,21.982402623800816,24.808705892670513,33.73293723098688,29.71658222539814,7.209404526446443,-5.132707075114709,-3.3738630848518776,-4.5838795288701615,-0.36105471220800367,10.570486536312005,7.102134469212945,-2.203262021864474,3.124687751513947,7.585773417266682,2.606437756974387,8.226668206795331,18.626560977682676,14.291810996349568,8.31277175951754,7.894775702645973,-3.3314853063381276,-15.132870532010458,-8.868766071095148,-2.6799296852359817,-7.953304795703511,-6.614556083439118,-1.7101321562309244,-7.138637596252012,-8.162291424524543,-0.13757079102453318,-2.4883340965518146,-8.249344377840277,-0.7577160779422325,4.163275606105534,-1.4279237186098395,0.3647965830648443,4.483073101026833,-3.461276971948649,-7.190466650071686,-0.7719338974687839,-4.612160700017639,-11.682616524784661,-3.3997908213191548,3.6909058984165655,-0.17394653536497362,2.753667301480018,6.714363703336476,-2.993318098880053,-8.272855940429173,-1.913965744581421,-5.685008226022601,-15.379721392187909,-12.962196967426948,-10.655392691020694,-13.612319273404388,-5.44841907593719,3.162719349804676,-4.817501788984222,-10.217414481892003,-3.362242067498781,-4.2387668482053735,-10.451985661772515,-8.406739459713735,-12.128677878734893,-23.910212257459506,-21.705758402741807,-11.586734013877958,-11.409125311273003,-6.704499000303155,8.16992910362512,10.254427239202645,1.4999880051963896,-0.2864674027788785,-4.397728899705954,-12.056247356171324,-3.3461434337505236,11.366744976067816,10.141073286748643,7.049555798007304,12.207268210192014,9.78992821181622,5.429536953866554,12.838047163008627,14.19543564295435,2.674184751071987,0.10221957078499289,3.09312821776345,-4.441313404550016,-7.221894925471689,0.9223654048353205,-1.1115492105111602,-7.897852267249353,-1.906046923278562,1.2761226107595827,-5.47377992819751,-2.2797683516238645,5.6670301971229735,2.214342984207658,2.675633289599248,13.182355197123352,12.283902316140086,3.7516824275953997,6.022609549238062,7.6472136294969655,2.8187065787415095,8.181160736090954,14.420434956048549,4.3131488104473785,-3.918645551443007,-0.31848664759089873,-3.541253838560039,-10.613751693885941,-9.27784605173369,-14.714231792709501,-27.706374988831996,-24.179945654904433,-11.33530371575724,-10.552427950006342,-10.624831785878577,-5.547413701666922,-10.952041836148444,-17.1461275956721,-8.921308279124329,-6.083772633423444,-16.922930187612998,-18.797782367148812,-12.251610966974585,-12.142974442485368,-7.711449680739121,2.604285306048656,-0.21933021764261218,-7.356730122378426,-1.2502465946432113,1.608334867317246,-7.516575785488587,-9.333208673240787,-5.779472445679561,-10.054215696008145,-8.914355145289557,-0.0929749625315841,-3.5633856031514926,-10.890674454792451,-4.902022762914205,-2.2385132710916995,-10.395745433846093,-10.660284370476846,-7.719294758717479,-14.839486107728598,-15.846193648174708,-6.601946719967555,-7.8885675342356985,-12.886704267171925,-4.285137050989944,2.715163985490922,0.8085060289884423,6.81647238175885,12.326020319884112,0.8914080149314376,-9.09114428374917,-6.476169973346518,-7.707275656549514,-8.497037748534568,2.3886682962093566,6.445394358635527,-1.3343104349271195,0.3867502360069941,6.703323354699073,2.408175271875346,1.6417784168365965,8.613166679807394,6.106901483246467,2.911956711058724,12.435729852956683,14.883326492821222,3.9855457593316648,1.3305154273371782,2.860565492832111,-4.397004564785097,-3.2740159023681783,9.180992900440426,10.13317753323388,5.578459830699869,11.872594030087347,14.217570658546277,9.435337338975863,18.15425189739788,31.49420195788757,29.720882077921765,26.686427199219686,30.258597087096867,25.060784741608657,19.22474863489839,26.570978918633344,27.868639316818346,15.826833789898208,11.891956560040594,13.683563170985504,7.160518105994344,6.697901871992718,16.954497773291585,18.016590291123592,14.73901340275968,20.65284084508654,18.507922227566564,3.4183684219890305,-2.255740579797477,-0.6271004092903532,-4.400557758828648,-0.6062230325826969,10.838753845048034,9.273890747053636,2.6529562897240115,7.076048621781149,6.776320429659051,-3.3109925874343826,-3.070834270542011,2.1188706393386565,-1.68728276191344,0.28015536017495113,8.648052046714293,2.3231186221810867,-7.0785985852423146,1.88043748091361,13.887854253576592,18.178235280820527,26.550500554450565,28.549857488401926,13.412723708278442,5.705647210559694,13.085333179778207,11.869259148620937,4.167944800617688,3.0778212692293296,-4.45657285248909,-16.392797080461644,-11.696801026799502,-1.9533258754599154,-3.6922498651501052,-0.09280363403467473,11.281148648223576,9.587879622204548,2.725212734970126,6.329642670939866,6.05278047206906,-0.20892164995818563,5.683275601012978,11.847978225766678,1.58801770515289,-5.57669257836566,-1.6535654896240826,-4.7662118520728205,-7.228050534415919,4.02492178728191,8.870636211469165,0.6986997434250446,-1.9844303813732522,-6.285321628652843,-23.011657656057622,-31.32995557890986,-25.47657470214468,-24.14503378412071,-20.95222175231624,-6.1979596023299885,-0.6278846889121128,-9.030880893242813,-11.063219323040132,-11.844977548937804,-21.893647343579755,-22.775593308456187,-11.922237437310283,-9.928490049421171,-10.041302863041327,-0.8469740989754899,-1.1387842563195647,-12.83276784225055,-12.608021836942989,-6.360335969701435,-9.74280664719072,-8.56315949580087,-0.05673012013710865,-2.6273242088524453,-7.478506547567318,-0.9869765648081477,-0.8036753963936889,-10.270194513100984,-9.645900243385634,-7.69586492635905,-19.279230471080105,-26.37983498431936,-21.632609254804287,-20.561559047328533,-16.195285129813673,-1.4634893588493814,0.9031997967392413,-10.791846660981323,-11.88143950461715,-8.156642360467886,-13.847688558014962,-10.06292759771252,8.766438200688734,16.399990056651227,11.311933688327558,8.530263873760171,-1.635484899468583,-14.56191881905638,-4.796241751375592,11.80206374149358,4.5473870354634425,-12.868219697616581,-24.246732135218362,-37.13552654223348,-42.51982513105111,-32.128426471981356,-26.08280932885618,-27.56414571775172,-17.940241366066015,-6.4789327084292,-7.209821433732199,-2.570824249695204,12.033006787814708,16.778262508242012,16.591772817945856,23.465907229587977,23.034034388706242,15.768365355987138,20.707292617690157,26.024121927458857,16.42284321509934,11.986651056340987,19.805784580261246,19.93691631684877,16.435888544771153,20.758486153056026,17.550694112335286,6.549329842359587,7.949293048076844,13.33538315159688,10.525792148938457,17.439553298911306,34.570765565012316,38.03911641517134,32.56176853891318,31.675447582449067,23.069334433672182,10.880270132251542,17.292883460278293,29.502656642528724,27.755992705825413,26.024001265806422,27.453051575544347,17.39041415192918,10.888017117232994,21.678838758064522,25.420964801032326,14.182601907137293,8.285231303005798,3.4636256621087442,-7.663057367293648,-5.047697500797146,9.985461040595164,12.814358739117262,10.883142637267769,18.653535757372648,18.622246044256617,7.309573073420969,5.134130660631642,5.637149119123032,-3.4096972757241253,-5.195840262798356,2.114264953672369,-0.5528646600508162,-4.082158288497268,4.231163834166891,5.841622889277695,-2.651162844644287,-1.3529504035880675,2.8756223253896342,-1.785680750233765,0.854308391693209,10.669312506861347,8.015315802130484,2.8482576878860235,8.067393082860107,5.90967125789946,-5.373906654861847,-5.63516318452835,-2.5500902270896626,-8.253904321992422,-5.59582192648788,6.44772321876001,6.874750377159548,3.3905611049020545,8.900971221892366,6.891594160133719,-2.915491760756055,-0.23266581989269852,4.764971444097842,-1.8895418653990066,-2.685988917612307,3.6540317214706035,-3.7652446989005957,-15.392570559170633,-14.779509791778601,-16.362563212841334,-21.785479237424177,-13.731051673869143,-5.209422549131368,-11.199628390555977,-11.73472097606144,-1.8122765094967868,-0.9930725090892902,-2.40830763287036,5.722206014961879,7.123733747428051,1.328661093249347,7.327115647011548,16.048501020082096,17.243472714834862,31.154095157963805,60.54820261138099,84.66133399273009,106.92335146288265,131.73488630703784,136.77588778852564,122.04312690048576,112.71585447110797,105.60584297262398,91.38996614817046,86.66022855034564,88.59276558042149,75.1589539750272,57.64225586199478,51.69569745390581,40.859756514794356,23.039389360940184,15.949234506188958,8.606182796870034,-11.9350173334402,-27.229088311801274,-34.978530879385914,-53.09512865386395,-70.42914639715292,-74.28237964074248,-82.51732025055458,-96.90618232051676,-100.308480148858,-104.13237400976527,-119.93324458556009,-127.78552835789495,-125.2115262039761,-130.77787412369435,-135.467982584434,-129.40690134639195,-130.68024967848766,-138.56530673961797,-133.45070462138602,-126.37246220913693,-130.90925222747,-128.67897514713442,-117.78235479952524,-119.0202633861183,-124.18682160666208,-120.46430271310402,-123.02589043734112,-128.78577164849565,-116.29867127134628,-98.94799882428316,-96.20482289073124,-93.61582116833705,-87.2142848691939,-91.98687174624419,-95.37246631864645,-82.54051619578968,-70.6407882696484,-63.64920369473796,-45.465644810130485,-28.79844709482371,-30.512856861529592,-34.34605971744303,-34.02119015984434,-41.81420701993163,-44.463298798979224,-30.012126000099045,-19.38766042101767,-17.414533845438495,-7.019055002595895,1.5523996167516805,-2.5687723121733352,-0.023479693681657476,10.081716632689549,9.75581475394778,11.023000374403255,25.184506257629224,32.00988987580301,29.017350691972545,34.68628301785293,39.78764374107629,33.49018248143288,34.36866114428391,43.37646798794678,41.16359615097477,38.37369587765585,48.452474505172205,52.925852702016854,48.037573583752014,50.409175713908056,49.659673502562384,36.10685744139685,31.932872559316912,40.862876665739016,43.90524867690434,49.26938591096992,65.60423286295091,71.62071889954554,64.82089680354636,64.06685209230085,61.19868642404511,48.32110524260554,46.82098845239642,58.3170894729659,61.48764029624833,61.77354657494469,67.72529618436863,61.801505729895,46.648152294732974,45.41009161994385,49.70854758505642,46.30987396140298,50.741644575958674,60.68351435881968,55.71721921603428,48.38545742359222,53.1993084150992,53.09300872812485,47.95426476568029,55.186050980108234,60.44977952044903,49.76696686678129,43.2778524822141,45.41183330725731,40.57021008238699,40.07647630678044,52.26462612133596,54.20657279732221,43.57058098673207,40.09721088039534,36.235454177256784,24.344097485358766,23.709186193996164,32.66719814103407,30.305727994368766,26.013490235569627,31.39697126969958,29.85141368405433,22.87916502285327,28.765681762506816,33.592403159493074,24.405515287944006,22.480888373338203,30.95627178932438,30.00401909224159,27.99160997713754,35.76782059428429,35.95005027465217,29.479485024561207,35.00842106333153,39.081644484671386,27.365081044868976,19.542461000172793,20.53125688830336,14.315414578930543,10.268387004623376,17.03171689573081,15.300918618331128,4.853696173977191,4.363148618882163,4.595697840308096,-3.2175090993612296,0.15376059930462427,13.40682674092752,14.438896542550761,10.3653088858903,12.554874956334192,7.222906298143455,-1.7960326245507923,3.192475711117578,7.331098688567696,-2.9030179352748613,-8.960985773157818,-9.00293378160101,-18.117043021464497,-22.90527025384897,-12.48099976480156,-5.712422043428161,-4.720509961858901,2.474239306573694,0.6375447431634638,-16.664626053157583,-22.916906721280093,-13.607891955899944,-8.134191915598377,-1.9133816932659187,8.368147236644907,1.8356242276897188,-17.32390496035782,-23.761944295448483,-22.923958209880546,-24.548162947131548,-14.445039484751367,-0.6271211491427202,-8.532115660085845,-25.667263447207084,-30.791065940740076,-33.745740860937964,-34.45845870366913,-21.619901611032923,-14.024918312477286,-23.45987251863193,-25.93766210878122,-17.136769703843704,-15.9621205741509,-14.083550282890174,-2.690699115469483,-0.6657661039299693,-6.944617031493157,-3.859384166684424,-4.612848385903321,-18.73716134999554,-23.377090622353627,-16.38594260291966,-17.71390523555594,-19.478365034208384,-13.169940397692113,-17.007078784174173,-27.112750248194978,-21.205686809125524,-11.235829656792614,-12.151600633451919,-7.838195889179516,1.5214580005158935,-1.9986395388799094,-5.615405891295703,4.454719537151623,8.836936240280206,2.320399892267249,1.7952649883709186,-0.24173731785174501,-12.21310065086448,-13.856313378089137,-4.33968579258657,-5.8834776097234815,-10.888771242089412,-5.513276403151419,-4.189586908931956,-7.230788110383562,0.5281610983621712,5.282605612463833,-3.944015085622148,-7.0046198038415035,-3.4179720921548964,-11.951605940767454,-21.098470142821448,-19.01968653133536,-22.55194009191257,-29.008131582692926,-19.138475539527292,-6.694618576280064,-6.951010989628368,-4.996647372724389,-1.4339817608367018,-10.558996631184067,-16.39736058734998,-7.867061715999995,-6.671865441158555,-16.274938287035162,-19.34867523178304,-21.754916871722767,-27.859177880789513,-20.705173768665418,-7.182375351545643,-8.632056380333456,-13.968425635344644,-11.021257527926299,-12.172470328331306,-13.462076574660701,-1.612085432933831,6.795319424963123,-0.43460232170397317,-6.004706468849041,-8.170982615769846,-18.355545557244085,-21.394596786168236,-9.02938887827371,-4.213000460659629,-9.806925466073782,-8.37818401204807,-9.249028589478913,-19.28532681089418,-17.922061385687076,-7.61574161413257,-9.318316835385287,-12.369753028842759,-6.587185229671615,-10.522219503688733,-21.762273372903664,-19.808777417342014,-14.966793272350134,-17.587402490004223,-10.129645294201335,4.439745473018835,4.767003056656157,-0.19405967840222704,0.09234750369113032,-9.347511400474596,-21.609573287040966,-14.006044034172998,-0.837084111209101,-1.4437452355627145,-4.36341534799744,-9.17331067495101,-25.690564478603992,-34.63127346701794,-24.985072370507694,-20.982821005058998,-27.086055712093458,-24.449453032840957,-20.72621697523321,-24.625694435544577,-19.11276526669427,-8.321824010389443,-12.607590802886264,-18.233496585904707,-10.151716159339514,-5.2990901932437104,-6.112952066957413,0.8496883711723004,2.0058553445288734,-10.285205506909536,-11.922978920999563,-0.08462538217726934,4.911977265516603,7.387945265401733,12.425807314216748,4.394935743448969,-8.340717904466862,-3.8846573049206836,4.538044616864572,2.8329447694492407,5.06712306833907,8.57863730306,-0.9327886495138902,-7.079823832289337,1.4079751216619671,4.707641308912663,2.393390339940512,11.214292055354036,17.91821734928844,11.45917785774761,11.290243788525967,17.134973717812816,10.681923709197314,3.7812189941138077,6.720626444178074,0.9718974998755847,-11.053238372665716,-8.750775271923768,-2.331838465541641,-3.507156344275243,2.2912429392377742,11.242909199776044,6.946439379870174,5.010365067616665,17.128700791991147,23.27849777036391,21.41060091469618,26.378029337759354,26.92663599187724,17.447248078227247,19.322613222317788,30.07805535206253,28.69488703190744,23.635353798945598,23.968202527168554,15.82159463213376,6.164210145468574,13.048123268159529,20.820911451737494,15.642366557092249,13.953110896326539,16.855346056735417,11.524890414845633,10.939698183335487,21.01448641579178,20.402633927261142,12.217668837252234,16.813285274206017,22.57589645422792,18.53110595341799,20.712511074699254,25.504209165454526,15.891899097382801,7.330929343064938,13.420229637838748,16.34161932246728,14.609148823288063,21.804121697604284,22.125950663099673,6.1899240055388205,-0.8986635596827831,5.616446444683055,6.934604539390881,8.653786844052414,15.748308116400802,9.798267673992244,-4.210955433708753,-4.14446177050655,-0.3685752177801669,-5.22181167255982,-3.209325063218388,3.4557356872906304,-2.797061809056137,-8.902900904218141,-2.6618307141165003,-1.3885287913141375,-5.049981140841131,1.3934562510738484,3.8895788818652695,-6.596455205942837,-8.828493595977946,-2.684134301932591,-6.1825861900438515,-8.532881945903041,-1.233697790049038,-2.594416265504379,-9.72190223679365,-4.611124555128927,0.01856958624327587,-6.110959990817124,-5.520639098445871,-0.21795049917436504,-6.74569373096857,-11.484909938006638,-3.8228625276008064,-2.910780905934825,-8.397741780057581,-2.2378238854470482,3.7685166964880126,-0.8334792687331225,2.032785454079425,9.445998811946588,1.9572527164767397,-6.765784885739248,-2.8320780143756195,-2.5638449470727154,-4.999041813970004,6.01485469089363,15.451876681816255,10.621967566772069,10.310039426071004,15.052979251235413,8.33664327568723,2.5566525563709743,7.142697943540448,3.3156868077533406,-7.044505301269593,-5.507214444293506,-2.592083812811932,-6.6297957903742555,-0.17939610936409833,12.64598101505774,11.695947115777212,7.409552252751558,10.565482558137752,5.632077785675481,-2.7541142792863766,5.0838332983993055,15.530050397108363,15.811549222954493,22.9073397011834,33.552944780547556,28.238216272401274,18.798921008265328,15.857796977263057,3.1847010649996026,-13.970479015407397,-13.93010124339147,-6.958144310211795,-5.867333493406753,1.8161088133357688,10.018052455509888,0.5927587212856666,-10.444665015849306,-8.523185187539239,-9.344139574871532,-11.479781143066388,-0.8779961238593792,7.438358011153745,4.565229261731878,9.374870424965959,18.68768305020774,13.965585626079491,7.603030147106617,9.861527248783057,3.384529891145111,-7.862305222354222,-4.025172470869405,2.794995831285312,0.7553239206387299,4.372927113638494,8.780479108149995,-2.1747235022646487,-11.557825979711469,-6.266084259731622,-4.451189891619969,-7.848296802053187,-3.683740388368225,-4.3337226261088215,-15.302243785679588,-15.79147815600511,-6.998946313662038,-6.118418223130813,-3.4446661946631565,5.9149848062027015,1.6469077882711307,-11.828475615794959,-12.623209487343185,-10.156338908854233,-14.366850291560107,-10.789190594665081,-4.835026792650687,-12.27230825208001,-16.54458590367238,-6.977492901448801,-4.2131548833982935,-9.57804962490004,-6.496107999309146,-3.7866840214790987,-7.305666642251671,0.12119270892334022,12.559819409531803,9.196278257870329,1.1710746210515928,1.2961606771840208,-3.2094494245222935,-9.389776823763034,-3.1659196099410982,0.4088636016225671,-8.521072986837446,-9.840313350720185,-3.8607095333094135,-8.615681219905577,-13.743875526906908,-10.547338942155605,-14.01467976195807,-17.601509741494716,-4.708893714282995,6.837471632439909,3.3028043102343245,1.993449352885289,2.994045894762259,-6.690722572414716,-11.841372567455535,-3.274241053062794,0.13206071043490197,-0.058286847286161736,11.312621987088594,18.321341222871897,10.324730250359414,7.776806072794434,10.686208054070107,3.0187748915255597,-2.203528487882986,2.716514578463855,-1.7621666338857227,-12.550431131439709,-11.298449747751095,-9.93703345760192,-17.920802505543023,-17.146751645606585,-9.023255054007766,-10.767633610109032,-10.449195541650532,1.4941758435768557,5.9875856299671355,2.577147778268751,7.1379348166013665,8.41015434018546,-1.2461578099095796,-3.297177777210928,-0.24670003883205527,-9.058663348904975,-17.6751817160915,-16.763005256443062,-22.02759174380302,-30.801358315954825,-28.36276588449094,-27.413149148829227,-35.034465949456276,-31.973072932042793,-21.553502427276175,-21.7221866891044,-19.62493807306324,-6.373067051672628,-0.3105854757202752,-0.22610699504443632,4.972700905188624,-5.224554043172262,-39.663897571871395,-68.29407582554208,-80.34050269601741,-87.28398489084991,-78.64419569620225,-55.55399014593432,-48.19358903906746,-55.51099962495806,-52.958263311297955,-47.69027821814631,-47.720488526267246,-36.97998740234393,-21.964823359796693,-20.12616372948129,-14.656233701738346,5.170746702698589,18.53662287670009,23.29925809146045,30.772112072360613,27.972479806667014,13.544848174516556,11.577753320608338,19.647897101484777,19.380726019766875,21.28100761752718,31.830660177578793,32.74996835457996,26.979293709676885,29.575358666465835,27.940502886494013,18.206113891560477,22.400437358943634,36.71465933856175,40.91167235137891,43.71814921180318,51.336458647133014,48.07720534327834,40.3726628007102,44.863897278192184,47.56532744333429,40.14408838921911,40.43709629698747,44.08253198949627,33.27944380835389,21.415801896858355,19.047221669419475,10.767393894444952,1.663030756789691,8.134723343574214,14.822408889358435,11.004035031790377,13.359193323489686,18.12177437641395,10.655221212636619,7.82573361580012,19.24177974262023,24.77513766513789,23.631934835175173,28.181566892673747,25.743577582091948,12.91689618547333,12.118987184141329,22.135603752981243,24.744730842128934,27.449901187769484,34.7351206162452,28.694009051172912,14.570028882618434,13.921800914493955,18.61322160986846,18.24764608471422,24.929998184524926,32.6638056299462,24.915297022348692,16.46051857135339,18.835191314103803,15.386424652222972,8.056201097989904,11.58111014927523,12.04363551263475,2.542362433354526,3.5492815271306544,11.882988279881475,9.490722091908367,8.233399567904208,14.612832735687794,10.323186149101815,1.076867461441788,4.16534911311438,6.142038136771652,0.6693183592492238,8.333257775863261,27.817300681322987,42.97640490668298,64.13694618836095,95.66921370872416,116.01344405947975,124.31161200791466,132.8168164271404,128.2463610640803,107.59621951788705,94.87827285152713,89.84589320374475,74.79687386377468,58.85721007963659,49.045967521050144,30.271622140831923,8.91710885464247,1.581350982914574,-7.241902821424495,-27.760104028044005,-40.9008240182131,-45.83253934048143,-55.73520200997481,-58.59925653483697,-49.78420733578258,-50.46722454616457,-58.89782326356593,-58.568971821562,-61.70969514447254,-76.0218718578021,-83.73504044837014,-85.97279126777626,-94.17601917449595,-94.60372294072764,-84.69112237030232,-87.80703090886095,-101.55986937681138,-105.864917762388,-107.59649119675139,-111.68450550395528,-104.6065500246856,-96.6643803007018,-104.05475690485731,-108.45241470442787,-99.32409041878633,-95.28596213433634,-94.81331882192842,-85.2021396904195,-81.89320582231787,-90.07694725204158,-88.55491925306511,-82.05787760724415,-87.03794377162261,-87.34132861031884,-74.7541756418606,-69.18406033320075,-68.20839854602087,-57.68589725370954,-53.35809918393745,-63.331846145245414,-67.29152381311738,-64.41453373736357,-65.88580131648553,-56.18852840608996,-30.46110374512584,-15.367399253328617,-16.496400307883977,-17.372214920253903,-20.614179957186053,-24.25385485133991,-9.817882024401282,10.756670825036704,11.165958982932075,2.4518716655812782,0.26150220531789814,-4.838058862113038,-7.107219527859329,6.566848803277148,17.290672317104136,13.149792201091632,12.507294265408945,13.6256303962581,2.5309497767075015,-3.727860008453877,4.974132981219407,8.51444933057087,7.070313425660059,16.47012379143099,25.186628072534905,25.62622333002038,33.679910223572904,42.76216038460508,36.145762540041844,30.928257310488974,39.494388947713624,44.24399614469644,44.82168602309547,52.356288624392846,50.90759930749147,34.238622743878565,25.255990890518426,25.368302769403787,21.24856185010661,25.82680819567981,42.461321220764084,47.219720270842124,41.63331836022505,44.29829786611071,46.598057344279766,44.00074005169108,51.85541145373449,62.94666847834227,63.158255414077715,65.85964891790596,72.96924855756433,63.232957338516,42.641422796747996,33.205621838351206,30.265780589035895,30.410532249597733,43.690753792098974,53.06575430866635,40.57058796598322,31.19755317274054,41.17320206120087,49.398539260193644,52.076572873356625,59.570995300488015,58.11759166333039,45.69781261351304,44.66236082868968,48.757513995359496,38.2787853201981,28.605678316459702,32.27276513951064,32.03490848070267,27.46508237445002,31.252434966735134,31.558339380575894,24.141177717357788,27.16286362633963,34.670845206676304,30.037190963420656,26.707145926791192,31.75315990188269,27.39357096103134,16.731613868876725,14.90993013228142,11.885577893411492,4.569217097725906,11.110782253497936,24.44568193688366,24.487854689192243,22.24614047634053,26.595291184284413,22.48359229217435,15.53360935730148,21.465701251982193,24.625336044619175,15.337814225288462,12.041361143992543,14.067354353202562,8.611730920117965,8.205955996944047,16.048987144759796,11.605776283133242,0.016302030525032762,0.12314277202691049,1.272998294579211,-2.6664807640057697,4.390316972127369,14.589878461902796,10.37481233379187,6.052051523161941,9.347695754652722,3.398058044361184,-4.9916951299411405,0.5952662323000304,4.140939592784681,-4.640970926601896,-9.269204952915981,-11.22500472663989,-20.616817955424107,-21.269497620391817,-9.350037198427446,-8.872848175371738,-18.791949280491025,-20.179321109919165,-19.64003291415211,-20.835417342143565,-9.39797172872351,3.737695414933327,-0.8715439334451878,-7.489747619263244,-4.258730609718652,-7.444074123270521,-14.360796997496479,-11.390661841592962,-13.623288910055688,-26.282429674149135,-26.89392381352905,-18.87180236427178,-21.134144463183286,-23.53077004251385,-20.848954011674266,-28.157019509657655,-34.08539078520216,-19.684935321646748,-3.664461129877859,-1.399111442669269,0.41650389977750724,-0.6435314130538199,-13.536285496718085,-19.139725824395708,-11.321679841661071,-13.362485094167774,-24.341457949821088,-27.85990258437124,-34.48340800064794,-46.70544769954382,-42.90696519856932,-27.614380726488708,-20.22213230065178,-12.48437435108655,-1.9321983261642117,-6.546198010607748,-17.29803405741335,-14.355950987634834,-10.513766269982833,-13.687223642098688,-8.035891057429733,-0.3874338793073422,-7.0043824918317945,-12.821811760649023,-10.186858047852642,-17.69418425494756,-30.747087765669054,-33.29685372241027,-38.33842256254289,-50.96665638462664,-52.96126294499963,-49.97971329427651,-57.62851829469054,-60.35502626486128,-47.75057289935725,-36.67300733793206,-27.51936934052112,-11.00647688077165,-4.090214593570369,-13.475585785745793,-17.40793605726641,-14.966107040771547,-18.350443162044233,-14.336646773020885,-0.0425814212190625,2.2958508220182816,-4.572233802562006,-4.199638625167901,-7.091563725163962,-16.315315083030523,-13.48962940569462,-5.370342906528164,-7.66417608060199,-5.610522507124558,5.6515726226599305,5.771431012581566,-0.042625420987389084,4.98749298402331,7.978729697912262,3.608728432232122,8.5108484181386,14.22789540381508,4.415004754915981,-4.212201237402963,-1.404484852732645,-3.378873213505604,-6.616685591561583,1.4820695105060442,4.482421395771549,-4.6561591886953675,-4.995894444865613,2.9049482324439273,4.4962847625085045,10.89861963054136,25.322322372635657,26.759664734264568,18.904692996123508,20.29649389285565,21.168328433739404,15.173642477627851,18.358873880661257,26.144330578006997,24.278598944722575,26.147368136777338,36.18069932952433,33.080495650088935,19.346035374324074,12.884713331429658,6.674694809043105,-0.2538341831074522,8.338724320879281,20.568864061662577,16.418447985538727,9.777260478818095,9.912943483133972,3.5908049993757616,-1.909334970467922,5.786068603185257,9.638153066963255,3.893437511204009,7.942403092402918,17.443647807846155,17.09825304830258,19.935267770188837,30.706293249951763,29.775827453162282,21.928452118600802,23.769887861273247,22.072975833862486,11.180641034182786,9.60301367442915,11.054270251447463,-0.46218877615549836,-8.046328214091055,-2.084274009624871,-1.4034955317878028,-4.757366398625961,0.4780290828455067,0.8432761814781256,-5.917446127949812,1.8783180791385239,16.36691779334018,14.772485567960587,7.371047502100614,3.637819137923339,-7.091736357797728,-14.126993306756056,-2.9865186287310257,7.098631029112267,4.847024612181929,5.817307291498517,7.028211429239755,-1.9261020737040306,-4.663911401588941,4.001847737328495,3.788938133253708,-2.8618546700441723,-1.3035753099268221,-3.1902589798865164,-12.276622511767126,-10.12197489569088,-3.791005886239239,-10.786634355129921,-16.017051226896132,-11.021139645154891,-14.184548132441131,-22.092346060187637,-20.122209812275496,-21.16616217124378,-28.95193672221011,-24.00745729156852,-12.7888280457687,-13.493319698815426,-13.830852315184867,-7.356906767337999,-10.733869526885744,-16.620149238738737,-7.416012863140109,2.886831448144995,5.400092766194781,14.241702085502418,20.185903604300407,6.98817525305954,-5.6784223494537605,-4.210561640985433,-4.502481343640787,-4.4158355916460925,6.55570639878348,10.991779753224545,3.084271114882509,3.1691488221953126,7.385438433848176,0.4279128358233657,-4.349906000064879,-0.49999498742229553,-3.2369109439455377,-5.198517254833407,7.03004650701129,15.29670627094719,10.09056559785039,7.501645360118047,3.193860894348575,-12.610033592060446,-19.6829462914223,-11.386513754935049,-9.10073672769726,-11.48121439651394,-7.512768715030635,-11.424990779341897,-24.00254264623975,-23.442155472415784,-15.088805674364414,-15.67894578570006,-13.709835262436643,-5.071695679613808,-6.3735972546807345,-9.33386986541136,1.9902949281896332,11.637959640597591,11.090279141086857,15.71277661498452,18.943991978118092,7.078420002844447,-3.445360450313852,-3.5981948908568158,-7.826234387818308,-10.824511509563191,-0.7856315049509295,5.060409918980823,-1.3836237303935799,-2.095487247346476,-0.19173847961631063,-9.150079412640142,-13.979893663515782,-7.57875608757324,-6.630209563701118,-6.174073694244871,4.30080583552942,4.897007342671067,-10.180548082447817,-16.671340037481205,-13.524958392807205,-13.43836817672525,-5.324871009295078,9.373107726833108,7.292808075235925,-4.712122432177221,-6.601827221171905,-9.093135049815952,-17.08143873707317,-14.441596182115262,-9.305796729251472,-16.26709403997904,-18.17348083784936,-7.894459218040775,-5.907395573737029,-11.452794456105279,-11.79327549498042,-17.903930885255864,-28.931834317311562,-22.422872771948597,-5.636566319661278,-0.023567411485980183,3.6448305839919994,11.244446657205994,8.227427522333993,2.733446831675268,9.154192121492693,11.304482625517963,3.3538469671035194,5.216866588192598,14.014366269979039,15.857747324471879,21.76829095166662,32.292815118495696,27.740156987900928,14.83396368553871,10.088926789079938,2.171827239933637,-11.39242617032183,-11.972401053878105,-5.981582897755133,-8.539187432038679,-6.271645722270039,3.8281550370511463,2.2481897437473073,-5.292901198342706,-4.434505857752843,-8.98024663911286,-20.719918926686173,-18.040800058296117,-6.619947594537164,-3.187362224228762,4.26468515752803,17.8318401778735,17.64139360915845,11.22012689001906,15.469329565296084,16.05975274774637,8.086350536089915,10.064206170111612,14.709636087028098,6.467512021603195,0.46829558950692185,2.278715656146588,-4.880723479482146,-12.854905469064416,-6.782489463868995,-2.422524687901518,-5.673050273763829,0.2890760119062974,8.333159295285268,4.409805204162662,4.726835213595226,16.01019000000681,20.40765771164852,22.101125087865682,32.70726956860002,34.529430270894565,21.824427642716042,15.733149040904095,13.492427527559695,1.7577677283263995,-4.480114842139335,-0.1942492863406664,-3.1231438331712758,-6.452243251185883,3.1888091220207393,8.72016548309142,3.5387803995636613,4.516722946910081,6.278948768796611,-2.6423985485935955,-6.4708237402865905,-0.8760322302814436,-2.56452387241336,-3.758787695818686,9.08229868650566,19.723138387021265,22.0298207909201,30.91291613412098,37.10888893677007,27.69723178867239,20.801569564411512,22.434451740100393,15.992598513960646,9.487675777958529,15.340478193585396,15.903577782830052,6.681594538763477,6.391330156166854,8.19128560428732,-1.877459392696477,-8.098234082938896,-5.534955138497495,-11.586777623674786,-17.509831437910556,-6.678338602029426,5.482256318151142,10.300889940867975,19.76139461064974,23.197666577221607,7.944422055389731,-5.55268393774392,-7.437224863983072,-13.580617447282838,-19.31747411587831,-12.548304932188751,-7.66410599940275,-8.962692726746738,-0.36641003157028074,8.815499750628964,3.4345109395874176,0.6201187635011891,7.126057132766176,4.591166939117173,-1.6083658980863131,2.3431851636332524,1.8752905050974833,-6.43732065123311,-2.9043263261535865,6.479305805137187,6.8526528268207265,12.586007801952846,26.1513902325338,25.60393713877525,16.01704994922145,13.940181300078919,7.618915083283725,-5.692327446534837,-8.071492369018562,-6.266567981169138,-13.50423796816218,-14.896171581379765,-7.7082281912846975,-12.255017709097222,-23.332600600195757,-25.592833623776524,-30.48617935979657,-38.83539673434845,-31.598854188284044,-17.27309524976493,-12.19182790394147,-4.067032684286765,8.378388612019897,7.101412867314374,1.2999648216188695,6.2150986256050125,6.710398556272292,-2.26441583340436,-3.9459335243128435,-4.596285110838041,-15.369149380515704,-18.419057701716493,-8.398386870637976,-4.615155558712995,-4.287981820351339,2.203189078894195,-1.6698278751384001,-18.429613369239846,-26.309295131367314,-27.228935726517488,-32.305867912441784,-28.64154584724221,-16.078853083864193,-14.700801124147,-18.39122729652157,-11.978252991941217,-7.592811095360718,-8.815239316295392,-0.12756598998438973,9.713879358239016,6.667353253654572,6.131867087179188,13.097970966036275,9.899515165372787,1.367645160287725,0.0561750754517194,-6.207940245407559,-17.220790318589103,-13.838188054431404,-3.8896996360162435,-2.588015646435947,1.9378027507140438,11.460140381879498,9.821034956714115,5.4286306898813805,10.834428323699168,10.903513323220038,3.3666446132779773,7.129121683836187,15.296897065138658,13.690847866935275,16.364313262068702,25.806038396044244,23.60416698733746,17.469588587240633,21.06973254602933,18.493480855237884,6.48520746723306,5.180365280895774,8.784635691051864,3.0618366617932056,2.695038401804556,11.246452352040889,10.311530481509283,7.11564663765984,14.820397779966523,15.41874645625581,3.07681236537894,-0.9978773866712823,1.533054155492111,-1.1486090256298533,4.979717285269906,20.65600179514412,23.384116089252487,18.118665495549774,20.032782180398407,16.11996894546112,4.028525084857156,2.9590957527869466,6.36815257871498,-0.6430993811383328,-4.820859056072052,-2.4926312609541106,-9.52946963415518,-16.528002760595594,-9.510177281748911,-6.58482533844427,-15.478309996555193,-17.763178514850107,-15.532914644462933,-18.827217942585765,-12.580562221204577,3.9287992380335677,7.65673194669168,3.0705443427971972,6.266974741223431,5.294010969028879,-2.804754656048402,-0.6858902827897038,3.0179717871102523,-7.281185456941563,-15.457928488581828,-12.36232449633739,-12.058709991886047,-9.072851015305101,6.180454335474503,13.286218432433863,4.505881186569501,0.2580105644972827,0.03618527214396294,-5.6054009791252675,-0.4055548798944435,19.143932329198126,33.05281036402032,46.46802999286191,73.35353966229636,98.31302578439262,114.72712536050847,136.65656929672377,153.51094802281062,149.81497096562595,141.9706373224195,137.41342935591354,121.18387978932641,101.25429088034666,92.4877170744993,81.411801253295,63.07041974300804,52.36307663400208,40.88331030551272,16.127006500382716,-2.80926121854676,-7.404285163139533,-14.44361232406505,-20.214957774692387,-17.43048107826076,-26.261278393995113,-49.20660311819471,-63.495999619252245,-72.40716381006797,-86.84953473333378,-91.43875725074956,-85.27504943706046,-88.7340190941366,-96.39090801207364,-97.15178013752379,-106.26695172691797,-123.04103120999649,-124.58455398928854,-116.70126789537562,-116.81701055739222,-116.78753328514155,-116.8207857806344,-131.31334931025958,-145.58329874902884,-141.12425638739722,-133.6705671324904,-131.30561991962009,-120.86226311613542,-111.53284324525963,-116.24213133293361,-117.93341822750271,-109.26162172743378,-104.36585129502035,-97.03342303492578,-79.22599451315945,-70.78644548911002,-76.20192181307395,-75.30699231065135,-70.93830999711528,-72.66815888879935,-65.8908812957088,-51.08120042118199,-48.41932125559259,-51.01422371393528,-45.114303025104135,-43.19760290283702,-45.49286581737909,-34.44990454138569,-21.162620017015968,-22.518113825267747,-22.612943241224897,-14.256452078110964,-12.52372481180617,-10.198429646644755,3.0706680883531883,9.370039032188,6.032353111127922,12.570900698303538,21.762770330039324,20.04148059409707,22.529957812781,32.414112561163975,32.400352341465435,29.250870905177532,33.50986846637381,30.01224505082642,19.237971169897154,21.065161530391432,27.833050655245707,25.322934494084592,26.744509529412127,35.13109392372265,35.55166768318327,36.42326904811578,48.4820450588939,54.892527721403894,52.35583026679057,57.983097583107806,63.99645872769289,57.095277841469446,51.95310416980424,53.33643132709526,48.11630915850577,46.75175334187977,59.79681781098407,66.67783367578987,60.52211072618098,58.887457035556864,57.68060631536326,48.18195877807061,48.506180517434345,60.920858554499596,63.58741471459367,61.63610152050937,68.1601977990211,68.06925642450746,60.24749126042323,64.65269623332645,72.48287559026822,68.07621543708582,65.67629742854919,68.906342661669,62.97830127924596,58.593342487939296,67.96504849822422,72.42184493190145,66.38259494078093,66.73186803176935,67.19519768200534,57.53580930430593,54.65214769610838,60.781077545525044,57.603784351832445,52.99970134607246,58.67656479685465,57.29837386811421,45.218435789550014,40.525093515511976,37.6997435832546,27.336797269637614,26.31444163372849,35.69146268903667,34.63802250720519,28.205351645591673,28.137018368225856,21.23223162805685,9.990435160562093,15.407802363852749,27.149223214495024,27.184091031103137,26.490388547350914,25.608245283513114,11.021788381342446,-0.7532772333258437,6.390595671331153,12.89846577431752,11.221844117387244,16.217580825782598,19.61572487007366,11.385841090336394,9.01844162303232,13.14670047913337,4.142668116223865,-7.196946757732655,-3.8387231466519554,-0.7913102475704721,-3.2380831290520096,2.5866619801453825,5.543976518901764,-6.056627392044548,-13.117926867610196,-11.53940906411476,-18.58963966979962,-25.47002020285519,-21.82609264818023,-26.967301596726124,-43.65923998647576,-51.010749327415,-49.11892304867606,-43.53468553806175,-23.76491527627912,-0.09731698479745976,1.8530020952776418,-8.019880527074077,-7.637896628989747,-4.781169596110752,-3.3549270228904233,6.789400180938567,12.787608261153117,4.558433994746154,2.299283989430562,8.303784892607762,2.6165837412594333,-5.752666006886955,-1.597036593517242,0.7229338130932234,-1.8022510897649275,5.305139434143615,9.92139249802602,-0.9032987377887238,-7.9392091913542835,-4.921455533495376,-8.369694948985929,-11.796362606530952,-5.206419909542139,-6.836787867957178,-20.639395086174147,-26.559443302662245,-26.674420071047845,-29.337072661318796,-21.049855192128458,-5.555371756508416,-5.109871385616182,-12.726242893986143,-13.431480906449089,-17.49622126596203,-24.457410226992952,-19.97290738139985,-16.07644099654802,-25.10120058574103,-29.84011421907309,-27.135284673790647,-33.05813114972967,-37.050565571884285,-27.017566702143903,-22.093705360286876,-27.360216713494157,-26.769224844365805,-27.684535920240204,-37.24065541161081,-35.676758139166864,-23.459195654798858,-23.5548496972759,-29.703129050954413,-28.033377729501524,-31.57675868960784,-40.71335532815219,-38.78038364970134,-35.07884623771826,-39.33981979930488,-33.93637070937064,-19.466597056043398,-17.567825811916418,-22.965953341409023,-23.436000732388877,-29.217922063550013,-35.874761053180976,-25.472178509255386,-11.549611985665265,-11.156048131128097,-11.11668936610546,-10.223614108237882,-22.88687921321041,-35.25508593201139,-32.70031835801753,-30.725322715406563,-30.99927181732061,-18.974710728258657,-9.173742082816743,-17.091968062118696,-25.692298336649998,-28.11095460802881,-34.807450116932166,-33.752914454276116,-16.58767998907085,-5.936944984947573,-7.521030282044161,-3.7625476242253257,-1.23210315824274,-10.463020329542493,-16.090511802390473,-16.211275418518035,-24.950520645475855,-30.075186332374823,-19.662048402357968,-13.07059786227677,-16.398021685513783,-14.456220129263258,-13.59557178573355,-20.925038512369024,-18.24034942014626,-4.858835146004945,-0.9282399787571368,-1.3916262399310622,3.7676357551893185,0.6313320053693703,-9.27741256824052,-7.42238519903386,-2.5427167615741357,-6.357992847574575,-3.4504824459012142,7.615667054468716,9.557394789997677,8.5642527198687,13.373736808526198,8.971920473815167,-3.5132053037904396,-4.844833193219012,-2.120167622051446,-6.81907851836347,-4.246961423197026,7.229463974388976,11.35967940303826,15.61066390555859,28.18987552776443,30.755205705092553,21.86336701574071,20.91752319956272,21.57300755376179,13.193277537422743,11.033322797667307,15.147647334428637,7.905857184578296,-0.1998685382140466,4.529603301297421,6.053002420581982,0.8190784984941399,4.454846341058528,7.872017425451897,0.5256025568550764,0.08689603635642096,8.74859942493974,9.009866299930222,9.42540431116547,20.511031096230905,24.876042663261693,20.960454427947507,25.71786569564319,29.494422112378576,22.08969936548501,20.662502720060075,25.219163053734007,19.166863108560904,14.139940083918004,20.684368616286232,20.330225465824384,11.96295086433081,13.644023479342803,18.368826854247427,17.258366834571234,23.510110930557396,32.233466242411744,25.386245522552727,16.104032601519066,19.229433843168593,20.57872804232309,18.23765123012561,24.47652015430092,26.960800304871036,17.21513984783965,14.267230240822784,18.96545964439554,14.368106900431982,9.311913769788998,12.484073372753212,7.318854064553205,-3.8248161551768285,-1.0667498287882613,5.298445850102813,1.1404987191240101,1.0062854411367796,6.492262909692103,3.4470083911387697,4.446998100063312,19.43161247059363,26.648615174256953,21.56977640843224,21.69966857453512,19.596067143627774,6.625334461579969,0.8092587333209347,3.1459774622034984,-3.2385956143527816,-8.28563271091399,-1.1098726830861736,0.8136327031092466,-4.579137061312954,-0.9581229112717886,1.113298228289149,-9.606512053987526,-14.292540147665848,-9.077608337849632,-9.758879376308531,-8.185557905214472,2.671902112079944,3.3550290117909904,-5.942628607341898,-5.581108294593311,-3.468322877100058,-9.237506738510945,-6.379880641837158,4.1782327607452014,3.676517370092509,-0.42349857957882464,1.4294223244097222,-4.295041901697614,-13.870219417965561,-9.236231133737073,-1.9889786193430021,-5.673552512597121,-3.5369766284688855,7.719510142711144,8.834906578324645,4.971171402592303,7.399670235731505,1.7830451079200857,-9.266790928389133,-4.96145772510463,1.918502459431718,-4.540082066586913,-5.680591673229978,2.248348769572826,0.5752350027234403,-3.7255591508464874,-1.6710249439189897,-8.721253640503985,-20.44779313580049,-16.717009812712327,-8.84712480306278,-10.265419825295272,-6.8810776044966815,0.6404854270776141,-3.0506190885385953,-6.655012949918179,-0.007827716104281457,-0.053925363702521434,-6.894816387442152,-2.5686649749355492,4.923376687800425,4.604623549704241,9.104182250630354,15.2152851661114,5.788346778379792,-6.5048495545701694,-7.359380004070309,-11.394080937344263,-19.151703595409867,-14.523095814419447,-7.563686368657075,-8.833521348993072,-3.4473384157245675,6.422594070543486,3.987191620380162,1.650487673513888,10.636350783412098,11.979429153896792,3.8767271248015893,4.856481605083211,6.679814924749494,-1.2629600873207067,-3.0709908935244794,0.30244947296728464,-7.9285746270447355,-14.316305242658888,-5.49052199587876,0.2700261205629454,-1.2156595991591603,4.569434728524327,8.397344395431222,1.9911417872222796,2.2671169297930738,8.251995318190446,3.2018190861550275,-2.0445856962034963,3.7939889167217125,5.434533081916625,2.6182051395689374,10.220777229212416,16.769029017781865,11.538837123493728,10.917702174023201,15.589765596595418,11.013762759223948,8.62620843124466,16.848849697829447,16.208912583187406,5.340302493898487,2.0147278398615667,0.4679772542376273,-5.230060868897443,-0.20298042515546122,9.82196292836063,5.153186778633618,-3.4843435820617716,-3.138622822633385,-6.759436525216414,-13.642821090997705,-9.389606324785445,-4.628369135241073,-8.392604443412633,-4.878656429022295,3.5188114485259847,-0.806437641421462,-5.916246264484506,0.738793800087651,2.557931177914778,-3.264208388114917,-2.999640044980968,-5.068207443218737,-13.562724497209029,-8.82029399115965,5.223713963066677,5.220412518275436,-2.408579868887763,-5.409836894619624,-14.370641803286675,-25.303881655718627,-22.027977844603754,-16.182654538168755,-18.886205681492516,-14.673779480732932,-4.634941607697619,-7.224835804019625,-13.663155090751138,-11.139114752980264,-12.282520501111314,-16.606180642055,-9.025713647029008,-1.330130779173953,-5.688173153394875,-6.056418381130492,-0.6829457933942078,-4.529708587538539,-7.312917154283678,0.18016340536464837,0.8461575376420516,-4.64687176112965,-0.3950241145201092,1.899921520185084,-7.016507564218657,-9.72377093092645,-6.1135588968847285,-8.912384418929852,-5.551022478195524,7.963366449348067,8.573988705255942,-3.293233489203773,-8.505198848075546,-12.760133109653992,-19.818979273547196,-13.36337456644059,-0.14215453872480222,-0.11371874759925982,-2.56672943430075,1.9940835227227103,-1.9243358791671603,-9.758407345721922,-4.193189002070425,1.0307832494226499,-5.38874079359408,-6.467549895207242,-2.3091295808437944,-7.308942288963302,-8.678787859955595,2.8157761826016072,8.290103069302386,6.636427794737306,13.008402696788972,15.718959815605494,5.484545621009846,1.470299193489971,5.437310261797163,1.1131330495885052,-2.500754599029268,3.5902798410415553,4.231997606335652,0.9399806133533208,7.2826305844294215,8.68716462306284,-4.589745905339556,-11.134914792627471,-5.425088358125178,-1.4180352303366124,6.783245199744524,20.879303270186668,20.797777684632628,10.109145729080332,9.792826333735261,12.00651589387666,7.279685892987905,9.561743361988862,14.865818639710591,6.375680150816084,-3.274189444226085,-1.9129304912204435,-4.614127423603918,-11.727771960958455,-9.446580342976747,-8.07404758347002,-13.2101541597173,-6.059498345755616,9.686483083957349,12.849520957471524,10.857415515667164,14.095795831947417,11.078509973400967,5.804759669226019,10.615016246701646,9.823126266545636,-3.6754855873474526,-6.665763024801164,2.413347776618563,5.049000742483887,7.726567975936822,15.190668428934451,10.921215667597242,2.1811695970185054,9.170383141633065,18.31987584370445,16.117129122517838,17.296203509740348,20.747201560382113,12.46834685977593,5.883471300470892,9.992180098431602,7.331322515568203,0.18398610490151324,4.458446568127583,7.195346312500706,-1.559378856523994,-4.874306187703544,-2.276769492828044,-6.102674545457988,-4.686793193098326,5.831322423809949,3.7602558693476884,-9.082514218263556,-11.685021141495943,-9.55219278581923,-11.05798719734013,-4.847819981982691,3.1928695063120776,-1.1991317590628006,-2.3088546958500107,10.517296290219646,17.563690247696925,14.249660848460476,13.321552087414432,7.554718412157882,-5.856772403822812,-7.917174165718746,-1.7470026798875962,-6.787979624333683,-14.314758546482844,-14.71433843603366,-21.460551600337027,-29.708408192221427,-21.79906949248334,-8.986159533689662,-3.8098104726963613,4.116621343433157,10.481763906959864,1.9793251681681303,-5.9332898183464335,-1.3304931505554012,-0.0594707605280127,-2.1051847488333744,5.758644069722012,11.661064117648847,7.822810604269377,9.276406916533265,11.212091728091767,-1.7093189603600631,-13.915647159699065,-11.469832319676948,-8.0845310568458,-4.901852364273285,6.90755233039855,11.715676138923516,1.8984596549985446,-2.059320493890471,1.2754712068754268,-3.353372276421256,-6.040120898852353,0.7278049073653321,0.44097591679153236,-4.674263067817758,-0.5799162185633975,-1.063152932582303,-13.485852006011317,-17.92920281924073,-14.435865019523863,-17.253324711109165,-15.1420651000186,-3.326546399128273,-2.384736844218822,-11.327755544129657,-12.702535978621754,-14.348610660576469,-21.280521490324585,-16.810494232808445,-6.801162528172133,-8.716129672780056,-7.549574486093967,6.776564996491589,13.300221205394594,10.145439363765323,12.80700340030975,12.334345775240827,5.022550407914714,8.598432089836313,13.813528591903735,-0.6759121644153474,-17.295007729841213,-16.73593296253126,-12.043054449462831,-6.644010331152562,6.1393152605449295,9.781820285365997,-1.5152625101965862,-5.149086589181725,-0.6827333242273925,-5.3821255824914225,-9.423960613848749,-4.162138673905078,-5.105704539476084,-10.222876627099769,-6.684974564645721,-7.670035598897107,-17.765205815808283,-16.14920502437077,-5.992584807871597,-7.141974628659156,-12.266070559034105,-13.313056485305932,-20.583028299187404,-25.118743427480723,-12.775581870924109,-1.5711616363905265,-1.6193784571897867,5.865138138779507,19.497128069213986,23.062540816301144,24.946181971500373,31.168218579680683,31.17489061620358,36.25428260153306,62.97709580553931,92.66742186605175,109.3735171705709,126.33901495330738,142.31237144742505,144.41313421283533,143.97763399376075,147.30038721901394,140.20288350401077,129.19697188686197,129.92447587007254,129.0812709174908,117.27621731362274,107.54872308856513,94.35161214631184,65.86560732502446,40.62713164108153,30.094001451573476,17.628817827576142,1.268187516901024,-11.826451287317791,-34.754055515802996,-64.65475683536984,-73.21708203343513,-62.571594372831846,-59.216358999235005,-63.310086579408534,-67.12079127246173,-77.64165226945545,-85.5348871822884,-77.37932260705198,-72.25983441808586,-82.9250576998631,-89.98712766674078,-90.84120266564737,-98.88845236942832,-102.25034811793475,-94.33116034182649,-94.07151388015672,-100.27996250312324,-99.67380272066973,-104.86213475511701,-118.55666879279813,-117.76646731365223,-105.80622618027105,-104.24413631002876,-105.5953897111702,-101.21165784039489,-104.67011476791956,-110.85353831660422,-103.012352012136,-93.01186752651739,-89.49771392851385,-76.95348808682768,-61.26195661071756,-61.14781939721298,-64.33561503776453,-59.96724390109506,-61.834640781947904,-65.70925411614951,-57.394304486981575,-49.95097951036507,-49.90125534622974,-41.76534032077048,-32.86015617467622,-38.931355951103285,-42.72224088713123,-30.50344681754586,-17.32597598918611,-6.323751273583953,7.33995567735831,6.981028790208075,-8.219808976473686,-10.838258168635326,-0.1206350285979445,4.362651160448474,8.481187843770678,17.22427898882512,15.762134195527246,9.721049877401,13.346932203772754,12.28696227285487,2.103128134153444,5.796260252443757,21.189526525243295,27.802815822029448,31.56249119442692,37.4307770932023,32.51596078089908,26.781569231938843,37.4867888381323,47.29399403138316,42.491414821020214,40.378521058598366,44.111687500424104,42.209684929888454,44.696318106473214,53.93282514770434,49.3424795805077,35.993603026952336,35.98866680782369,42.206262811325196,45.156403165807816,53.70288857312606,58.849755046252724,48.39522636710843,42.14369566651361,51.20152331240132,56.58595513925015,55.85062636073142,58.980617288635656,54.005540920000435,40.345950146399474,42.17870194072336,56.48432556234968,61.84571778790224,64.87760075530075,70.40010942811337,61.7057518040068,45.31529719080894,41.067815588906896,39.42892788226441,32.86909536775889,36.82477804935054,46.19704888854293,43.55424795751219,39.29638313381688,40.6524737837463,34.9490240215802,30.58169669087947,41.402770849294804,49.68640524321175,43.782021572840556,38.06929497479061,32.74717925460457,21.703226279467568,21.183633837244653,33.66475705245244,35.74200201926035,27.384684713014934,24.942496709281773,20.369266926045807,10.27708828568904,13.442061547793315,25.000578875134824,25.927065970830892,26.064770236860486,32.04252974780465,28.601104744482324,22.601212870559635,29.56599997836955,33.86226618592331,27.114342541987106,28.21720459777321,35.56742637537532,33.972458662413814,32.643324185659374,35.10711862254779,26.673730568583533,16.974857408031564,23.15204755955612,28.40686240013285,19.122471543467746,10.139217878360594,3.18569197318667,-8.642887995071177,-8.882100974265725,6.4541563869679255,14.106263816108692,13.354023588374176,17.84464288038945,16.2413467670628,4.976796134332629,2.645903154774814,4.6962675245697,-3.1339046024496704,-7.666388971406241,-4.042688806859182,-9.715961896658664,-19.37940940150081,-17.581034431361132,-16.952579424579135,-24.262401670619667,-22.57390450193724,-16.289061918872505,-21.422514679866868,-24.45813258307959,-17.34100790593594,-18.430471256195464,-25.13294204993276,-21.830654338388825,-21.009667472521897,-30.02778716031372,-31.907764526982106,-29.438432073706053,-35.59415868840479,-36.98398949123291,-27.961497791017365,-26.889523505251454,-31.77240241543331,-28.381411527769977,-27.031236630781226,-32.88098324360571,-31.00622373414371,-28.408751216538764,-40.78032247414662,-52.17319576674962,-50.37054236757517,-48.53356411417796,-43.430411692218605,-26.313442402509256,-17.248056199210843,-24.579988677373546,-26.95389640991877,-22.86413489891397,-24.32405262375558,-20.264192150704723,-9.279509185860778,-11.434399438481815,-20.335780991115143,-18.01971888436802,-16.814544611472467,-23.40648738399393,-20.77716186567806,-13.240832353764285,-16.21204706666642,-18.480991306068503,-15.01734777610228,-21.653349164742192,-29.985292900200314,-21.83265965235475,-12.00957876622724,-12.705922091579465,-10.427513645944707,-7.577335415236476,-14.461021886773356,-16.2460127954294,-9.149437747763464,-13.10634093035402,-22.450292375007177,-18.544394542661266,-12.084680426025518,-11.225574023480519,-4.746808234184019,-1.6864336038384533,-15.065989790045274,-25.709745128503087,-22.056775129574845,-19.41612258701796,-16.415551864737996,-5.094168385079914,-2.969838561023198,-14.342004838579406,-16.26062289669345,-8.417225475458842,-5.243423245241313,1.4064125713452533,10.855466348087397,3.8779182904709937,-10.444156229547424,-12.004782951215365,-11.520230441641107,-15.168356289876527,-8.433740607277292,0.5138443001527526,-4.117811230256367,-7.742732418568855,-2.3318699051550356,-3.3461825759510626,-6.758825133516169,-1.7787471185655968,-3.8886659702828714,-16.614726110640937,-18.586401688208596,-11.683959390671552,-11.021589373547362,-7.952615664209949,-0.21531353701483225,-2.650029130575142,-6.754095952170782,1.9141404014472028,8.76672826749703,7.14145700532729,12.633702220245008,19.502423206635935,13.190419849587514,6.498141673606911,6.735862457454345,0.9701100281548798,-4.241760911572104,2.397975902934534,3.552137231531951,-7.176855331690662,-8.715023303654561,-0.31854344714562055,4.85403718868864,15.162196988628653,29.925538182143626,28.7910900663576,18.088324607397265,16.781858074830055,15.643781039691778,10.521549446497254,17.055843383064502,26.831205890571653,22.116127810864743,15.177345377380068,14.005907512077883,5.021486970389637,-4.843375691339805,-1.2254679775489135,1.029095511408064,-5.592996726644636,-5.162002882426219,-1.7854512931266577,-7.4262872137577345,-7.731614706919316,3.1624420878624284,7.523184925778647,5.8769381615131255,8.859789149773224,5.562673184323899,-4.7655654737245925,-2.2082108285674718,7.79876461189255,7.996042014183742,9.45109429314809,17.271433632851455,14.35881221828068,4.789979544565459,1.5809879196204601,-6.896508441062163,-21.393846680213414,-21.0634995249783,-11.023758372043183,-9.633469611352886,-7.170972872721691,2.1077830155224557,2.547675808501089,-0.2800180137984649,6.828188129516556,8.722861543908472,0.9200897894705404,2.7818683848942776,8.751943497465355,2.8967458631770744,-1.7171724711835894,2.0389523123187443,1.1444140477945295,3.00199786455743,17.22028337348039,22.486291684886076,9.32642142529643,-2.328921947804007,-8.996093261620114,-17.39238812863039,-14.377450947149665,-0.358482250234915,2.068846960476049,-3.998464710597149,-1.758614494771921,-0.6519608293651425,-5.572286769283697,-1.710532004146097,3.746728416479579,-3.527353065831874,-6.981569048795646,2.696721091824358,7.858905672658642,8.47682194707615,13.808657913365158,9.473862583953089,-6.099540443528368,-9.84924907343169,-4.096644987732975,-5.549115474661643,-4.845801447231372,1.7271998533160655,-1.6942080638539405,-7.887131844362553,-2.2800823238885783,0.7228278562498531,-4.474548656118907,-0.04945692133926105,9.775681562056898,11.50579520071954,16.47027537014284,24.887975422383583,18.1399016065554,6.111998886657921,7.799348554935687,11.16341124663417,9.382216010397013,14.250025338465381,15.947034200695,4.16941774295714,-0.37198134886181483,8.257383730447534,8.80050404608326,3.4577447625075712,6.661325859559021,8.152078124467073,4.544554247319702,9.697971672162462,13.164404847988866,0.7020153160334592,-7.934498271075,-1.1337707913479207,4.7051720824432355,9.108368011104151,18.12918086355604,15.7372011343635,1.7072373195474109,-1.6571769414779307,2.7852212545549215,2.565250788593964,8.716399364495611,19.968518251875523,16.176130808122256,4.369583044506757,1.6415659286528812,-1.4895357413294885,-7.69824950650321,-2.1741350993065516,6.0636647120500875,2.3398669388284543,2.709653072218195,14.7210409103648,20.085012784430237,20.457361870956525,27.22502855388358,26.90920697141057,17.171118847237015,17.659606189087224,22.072728226947273,13.31520016975842,3.4736947329949075,-0.06236350360247467,-9.286305499055423,-15.891686283462203,-9.186487983842605,-7.893794506623713,-18.003826223244253,-19.35536426646712,-12.400257464191336,-8.468324945064394,1.518765365226694,14.8669247172695,11.715655655859463,0.1274487272881455,-1.5344592956709302,-2.1563701614135384,-4.939887300693851,4.026883926667082,14.658537490875018,11.075626665604613,8.113043367470132,12.716695179006287,8.951700271084672,2.6320769638741153,6.474750784634797,5.097731481073128,-5.901616722643626,-7.4367340136980085,-4.815384467756368,-12.383645057688648,-15.278957971177995,-8.424984095038747,-11.61032314647802,-20.31288259784872,-17.681421739399504,-14.412715029200216,-14.758132994770527,-3.964219841407341,6.582999801132209,-0.42879118133921956,-7.077651138454297,-1.665586877378577,0.8442003754163308,2.596556102474371,11.799620797488506,11.764070857743224,0.26736138114724195,-1.0160502893086356,3.5779276435939376,-1.534257371249137,-4.734567258647291,-1.7420265277715075,-8.224078318768456,-16.591464555296536,-12.620464443105297,-11.062836046316754,-16.35736255009715,-10.392617423335366,0.42656876968963475,0.881132089829554,2.589574878154776,8.266698613297203,2.0600086690484627,-7.168030609924306,-4.629535893775055,-5.118364533185465,-13.62575827691974,-12.55945467534728,-7.3339061460171004,-11.070300014584685,-10.580254008419935,-3.4967383876176523,-6.95843392256686,-12.652527776467403,-6.982004484553931,-6.194302778792098,-14.860821791252242,-14.113097008296435,-8.057344784196424,-8.300373826642483,-2.3223051223725717,9.015908922630238,7.289648959244689,1.9213422776257136,7.340616093935349,8.654675301349771,1.4348808296625735,1.4248043822522902,2.571418045512771,-5.326301052496985,-8.03846255777286,-4.649082261186258,-11.99903316837489,-20.307263125571883,-13.960579622546238,-7.541109498753396,-8.908941924762873,-6.189652212731156,-6.5540632158455345,-18.05439395719665,-21.814083595628585,-14.620045209731078,-17.336625417240924,-25.88035269509571,-24.72606843116595,-22.548920826905906,-20.971666228129074,-7.844113273162122,2.778108318310171,-4.365357255788144,-10.60342820248202,-6.585874031455292,-6.337885841495324,-5.6417479005868945,1.4698657246619735,-2.7766648279064823,-18.086950705862296,-21.53445014837942,-15.621934337396837,-12.838635736097656,-4.488180239922766,5.7092494360223025,0.2994045282364839,-7.5441454722711425,0.049006756940931595,7.642015405047491,7.1654467299131115,10.962455357588532,11.346490524561514,0.6297809875327385,-0.8199113022744589,10.279740021099897,12.302685285608254,8.86530491259923,12.394948077760615,9.536247651533918,-0.6436851213158175,1.0895807028221576,7.192876229044406,3.053151626108187,2.733059915458072,9.48135411994713,6.388328096562918,1.5872682006862433,8.194024242196608,10.262504170738008,3.360032600035803,4.382141000355408,7.513359496395238,2.0515321152151706,2.6804700691841656,11.531145112960346,11.043280682947817,6.9072740491568965,11.12846286163022,10.520363374215016,2.4598431665260274,3.9999168260406126,9.651316598809231,7.276747149161064,9.168502687788026,15.5308554356533,8.343119119000573,-2.8930566569609586,-1.281448553182125,1.1355985931727008,0.4311546844554137,10.124490290327026,19.52769400739859,15.136756148676334,12.835336473388809,16.84947170444847,11.212731859472633,4.579290019606025,10.633307257755972,14.21555761780974,9.788450966736843,12.026427671507257,13.323395445810903,2.630782904756529,-1.6107394558201584,6.10720243301844,6.385827481178083,2.9526696126237066,6.631683204347778,2.5311392252199414,-8.695549730147711,-4.899280720710211,6.731469029480633,8.989165328731374,11.571535005233262,14.598736197885142,3.070220223037893,-8.971736370879857,-4.136002294886393,1.0191600609638631,-1.1813476517365649,3.697860760340949,9.133876084791456,4.945594135831138,5.5631997662492445,10.817945505035107,2.6059416581915187,-9.040418811776156,-6.666788570930642,-1.7298403695960616,-0.9473373707515619,4.687785532421576,5.7607834862605,-5.740258375817017,-11.319115579291475,-6.193600273062794,-6.968380306642294,-10.062023305977352,-6.659226355369974,-9.43876321435062,-17.529958163991132,-12.173200129916625,0.3505635098375981,6.002732321507005,14.180456089374282,23.721333144829504,18.23646821089189,7.753363885089735,7.27913671237518,4.041705185012972,-4.214690986876688,-1.6612243885117794,2.6134261119687827,-3.5576270094661764,-3.6109953316660572,5.558130391004061,6.147768931945215,4.112852782892176,8.087360708289674,1.059003407110605,-15.356376547874811,-17.978810487736705,-12.231313343308798,-11.165401072642613,-2.684724691440504,10.583773709471846,7.722923996238492,-2.177403995206529,-1.7877720004409485,-2.3054745038579485,-4.976125174167242,5.5315247312401565,16.65310152196505,12.671357366250092,8.114730470334035,6.734569014602462,-4.078531739702857,-11.918940301168849,-4.0856243293984615,2.2630894814654345,1.4158215136088321,6.221202956925323,8.235488690428106,0.03903166272868441,0.7410507827066051,12.372979518849009,15.15477779311449,12.586780354057787,13.913505612663634,6.721469961999867,-6.471314826496887,-6.132820630542437,0.0734310543186143,-2.783722005639265,-3.937505078884371,-1.1102917367899605,-6.98354255934157,-11.809604401048748,-5.3708397464689375,-3.4441895328373713,-7.7825000345938085,-2.5934569694636336,2.9349558626770342,-3.087049572316924,-5.391436931924767,-0.7715885625961665,-3.3791427399257996,-3.9030352201240546,6.515248254095855,8.273915278731584,-1.2957718960856073,-1.9321453275434222,1.4025530264826753,-2.8202158627103704,-0.02655728528600676,11.730542275758184,13.788303889143286,10.929023588604746,12.560989922305511,4.244332948352561,-10.94361098541517,-10.426121234130342,-0.7942206717197076,1.5232209708805786,3.019425421102206,2.3925886399337624,-8.916899876486697,-12.775063722818334,2.5736556317425245,15.033908237894847,15.509636304681276,16.465835264809915,13.052928252769417,2.8797963300878147,7.171797556575792,27.44278154641247,43.99885656128996,63.26596361869325,96.21386772004766,124.38642949665041,138.6992104036206,149.35378964123785,147.70575062266923,127.36908216098675,111.08066399256,107.4609565355404,98.3926909553027,84.10900198553358,76.29188256415799,65.8961560145062,50.13434401704023,41.82700011745984,32.30385811839065,9.985298064191255,-7.663861468859164,-13.809411866465132,-25.65474048527598,-41.22637898593498,-50.751671188871235,-63.83243270021572,-77.29061583649268,-75.78377401319852,-72.5457796843021,-83.51085987633081,-94.87644522324288,-101.9471864238445,-116.22299024223001,-125.53354771686837,-118.32352525492368,-113.3880387351454,-115.9251161560637,-111.41121512044688,-109.5251891762679,-119.29097955930014,-119.59776836491709,-106.11915720920092,-99.07087284334811,-96.29445869754173,-90.60174518552822,-96.33367627229799,-110.005312392864,-109.84142620120025,-102.32226891627582,-101.79106486905472,-97.38988924777486,-87.32554915285256,-85.53362610185745,-83.63099483050122,-71.39450479546554,-64.51698324862113,-66.22397095095745,-61.860670779244714,-59.227394989433655,-67.26278868821106,-68.52066882352335,-58.89065982758871,-53.09535268425717,-45.02380901068207,-28.554065025916746,-21.819623616331008,-26.337278442142907,-24.87036727582639,-23.51661069707095,-29.63310525089881,-26.67765495706719,-14.74097795964473,-11.989222892779313,-12.30169240801899,-6.671863345797775,-8.893325259698871,-16.637947729268795,-11.79751367827118,-3.0360210277496256,-1.2963812535893589,7.499984221475348,22.18393541461623,24.708254682154354,23.059077787069842,28.969192331531897,29.157599517321216,23.52635601317556,27.26602873189593,28.851656976319948,16.54249773684497,10.731772158827315,18.987239128483868,25.16185477407337,33.3310670441276,49.225007129185435,53.64963628432264,45.40165595950039,44.940195262463604,47.8622820077067,44.13605234191575,47.000784759761586,55.73741757079606,53.10763876789885,47.19502406209066,50.69147988947668,51.486342397125405,47.48558321153804,50.94038183537272,52.21710372258943,44.001992952229315,44.928192302258424,55.4212859658612,55.806516915944016,51.72793473332675,54.20469844448968,52.664653659215936,49.427829738892925,57.088793026822295,60.901930132484516,49.63865620186567,44.67106935418761,54.07057835370284,61.58223786743531,67.62927221859348,74.81975362936537,67.33056374786102,50.77908873875489,49.4374469337634,56.28903029772503,54.62141620186099,54.27079809898311,57.03675920199802,50.33017385161551,45.31591189040296,51.9866190225017,51.114328375836735,39.26371884584306,35.285111874860824,35.29522075031478,31.739276908961955,38.166301257220105,49.92751695538564,46.48076858279046,34.95512308843812,27.456954642500314,13.402436121441735,-4.4444203897230645,-7.865980007232039,-3.84472991555471,-3.362377316181065,5.656460429960055,19.062674900231706,16.746613188978856,8.231765081289277,8.247821540847594,5.750619345331632,1.6811816966655657,9.421797492388778,15.39704144637975,8.375619834229148,7.531200605014092,17.144881059016004,20.980211361175684,24.753182806924425,33.56309527844131,28.387693185160526,12.25091479138886,9.271509604549824,13.871974540205123,12.986983030000214,16.91606493701353,21.570793959141636,11.662907537553611,3.6048928013109642,12.355871858735908,18.738105221061954,14.855932121810019,12.771235917227909,6.603993927370057,-5.28328098080982,-1.523097735875067,14.98745163535636,18.842514890303256,13.053690359572041,9.485656446743647,-0.13172405287785782,-9.482004226813535,-1.8059588383693685,7.793549920381333,2.068544934957384,-4.668125437886324,-6.881808325945981,-15.003543506209528,-16.486393180042825,-2.0974987456396095,5.4423099080278465,-1.6890157610426173,-7.281793997493115,-13.734946014920052,-23.92822803820213,-19.3467144267619,-3.9641320695960203,-2.990732985714943,-10.32885776012936,-9.797030753268665,-10.426182267534347,-11.504855708740319,-2.3033171794145755,0.5857654130843631,-13.153927245192381,-20.464246043185327,-15.128487360636235,-14.573618941278099,-14.788371167202037,-8.73290758631376,-10.737424688863657,-18.337876711442863,-14.438284956801887,-10.380406393091,-19.886329808277353,-27.036500804387945,-26.15965795698792,-29.95901773827602,-30.193576502940616,-19.11534338326472,-15.806495770770503,-23.659826751071463,-24.16129743631995,-21.259266132281244,-24.328084223736166,-19.89669293451867,-8.932023996150555,-10.252762070253102,-17.127875560376978,-17.274191925424574,-22.3043890659218,-32.1444161684756,-31.76064937528028,-29.87065169559179,-36.424533863233,-36.19205878597797,-26.929178862651945,-22.49703771827861,-16.34553368343956,-3.944690202210404,-2.7685199625064656,-11.973406278875073,-13.835625241101392,-14.505175853300962,-21.678294032805805,-20.44418191476136,-11.513209436198608,-11.941549521055972,-14.790606327073384,-11.268909117376833,-15.89863915413766,-27.324651986330302,-27.893450539691028,-24.951832200681224,-27.998678023439215,-23.838446573515135,-14.31655271425204,-15.50439676854961,-18.613002032862067,-14.236419655385927,-16.59158709667357,-24.588515405864594,-22.57349564591067,-19.692160852215267,-24.017605777968306,-18.454191875547853,-4.682248422037802,-3.2778288913932236,-7.416995752129527,-6.247858133809572,-12.25403659482931,-20.98833289201517,-14.487163138289814,-5.477689832474038,-8.261361693047919,-9.111055743467105,-7.293693348479945,-15.98247999878808,-23.235537100394332,-18.957175242475053,-18.699843473279635,-21.59874605338885,-12.425607670279373,-3.7587448999764246,-7.992001009762642,-9.600598442816052,-7.934290818005928,-17.76393829029789,-25.56859801927249,-18.139842031484967,-12.858152749753433,-13.35659077041478,-6.6184206881889684,-5.03695377623696,-18.156136811997683,-24.35398956489,-17.64749951676144,-14.503204281871165,-9.94842875110398,1.9037648580905886,3.5720156667419736,-4.220266172872078,-3.9015628347186007,-4.309869040458606,-14.93359706384292,-18.599755408616716,-13.119822565392784,-14.077854514041528,-14.007093353359274,-5.630031572230444,-5.606932083151314,-13.236838133168865,-11.099078494948834,-7.361806003521714,-12.044886842032042,-10.501187073704099,-2.390934527137418,-3.491692769945827,-6.034182857764723,-1.0878000616269277,-1.6574550435376367,-4.84958523053193,4.6796862933267125,14.706899906675783,11.62783959202606,8.079641252520268,