-6.689407827943821,24.548470403571095,-16.612468225423548,-24.034233032231178,18.09307972530008,-4.197665946276043,-34.4740055955481,6.526613272305376,12.109398871998033,-33.07616050032686,-13.89273698189401,15.357575623471606,-23.089701665615948,-22.465970252157966,30.760709725827976,17.89629007920216,-9.662205702086514,25.622154130563242,20.229152040901972,-34.46618075764422,-17.979325440077837,15.055899308576532,-17.581989453020466,-14.721644289494215,33.19032474986149,9.534272134009022,-27.05459804510324,6.398713440712459,6.661657572179396,-38.407391489665606,-13.974402666572118,21.061651641834946,-14.630662410871558,-15.76594797600904,30.78570273988945,10.395227691952673,-20.20779127003926,16.177857498798435,13.398537822658442,-38.394799890827,-21.41884649415705,8.834068081127144,-25.333523864918106,-20.435869890195868,30.488380720592865,10.109684667885004,-23.151335345284288,10.782070433305602,9.593131220848084,-34.005100260472034,-5.004146092468467,34.194301989338115,0.8156006126547624,-1.1152126792411883,40.168502201435174,12.78338407180006,-22.03558583407926,13.658979920819075,12.66576266611644,-34.39561769467391,-11.131649657965418,22.93216579207153,-11.345807258812748,-9.763182592328418,34.70947150538484,8.47432350460213,-24.038948704789696,16.063512325833344,20.5220327976332,-21.447260845576928,2.2934976716992033,30.37201628362918,-11.093788473997321,-12.092538475217635,35.43601919389605,14.574917452918655,-16.107342104973085,19.203807976273364,14.881720983805435,-34.90254142284204,-13.625381326062667,18.681568189655838,-15.334019853372247,-10.58522721289886,38.67178599552256,16.426144467570154,-15.952645904835357,19.64840828941031,18.409209393336376,-26.35996946739891,-1.207648145353268,31.71154862117568,-3.6631509982564197,-0.9911040499191204,45.401888487573615,20.45325441083201,-14.420519771526095,16.819538156774907,10.212861802120786,-36.442495266993404,-8.086242648413307,30.5133693763189,0.335577306305467,4.7688801341290175,47.73346464744882,17.59196769405151,-17.761302230401228,19.62228033819091,20.641577896748494,-23.288728289104398,0.15720823402340756,27.10927730442678,-16.56555520537852,-20.560815527319072,22.579614335662377,-0.3793203939529022,-26.925499004712133,15.18089747572403,15.714725555996168,-31.31479847195895,-10.41807141978515,18.50154211947913,-17.48884468299186,-13.498561130285598,32.37556921707056,7.878966667371905,-20.889090437345747,20.050435774397727,21.533662434081023,-23.439953588514435,-3.8935543765301155,19.06960530712624,-21.8033904188265,-16.92997378007901,34.01091454041317,14.06674564489405,-14.939860398594153,19.75216373787466,12.93620356752888,-35.85135158796939,-13.025034783331368,16.182584068182855,-20.91191551090772,-16.02944663471019,32.084077004892336,8.094926981931273,-23.407592387128794,11.269787778369047,5.758510378141418,-40.5020462978203,-14.053802474183644,18.697115773803127,-15.359695591274601,-8.865759316978748,37.94084824765577,11.676324591889344,-19.69994964948605,17.143662428137365,14.933953464164409,-26.95528344131801,1.2311915693134097,30.06229430522843,-10.921572761137995,-10.737200448420182,32.88081070001488,7.76138890638282,-21.067059612591258,14.76370919845277,5.401976520860391,-47.3281920543031,-26.06079842771684,5.572159849698688,-24.957144141005074,-13.819564650926683,34.315366697442855,5.888750460878697,-28.02723381372609,7.84263694394545,4.873488367399139,-39.39535476352798,-14.15455553392259,13.93055778828509,-22.76893976733192,-13.30650084371914,38.90960711118631,16.866669902719487,-13.467684459825914,19.40072739473129,10.365329028611702,-36.32806909870227,-9.316969349524669,21.843469760993003,-13.745284498802615,-9.196287937034265,33.270927540680454,3.0408666822889394,-30.495729201221344,3.3853473844067707,-2.115831650045097,-44.53714538080017,-14.595168255565142,16.80950210491982,-19.706291749362492,-15.133032047710639,28.03377512303618,-0.639683878633921,-31.018696934481767,5.918274663256238,1.7163937090895267,-40.51388704418841,-11.271275455058142,18.034429169336036,-20.438200105085635,-15.680449666351763,29.96866902496414,5.961523608038988,-19.080232655396017,19.98879227288826,13.133008735119706,-34.335548507126234,-10.144641367553191,16.638780168298815,-20.506803583885272,-11.808742738526599,37.19195537107245,13.59458635637917,-13.369429103061119,23.66637033437719,16.144749819384174,-30.257496944313353,-4.734445012438856,20.95173500080947,-20.100022392096914,-16.100095265534677,29.417069071961464,5.390159765599714,-19.449718236903035,19.042877883712283,12.396992169852053,-30.956675201867775,-0.4462665822266487,31.89103050975544,-1.1915700067193278,6.976265256864981,49.468993520540366,18.993074158512982,-11.647619465688255,22.408274853961423,12.689196498838424,-33.063774215440404,-6.341486540505821,19.697564619205114,-19.488997833302715,-13.257945435078359,31.646182571996718,6.148414607852899,-18.227924776102945,20.073887782720686,9.57243089018279,-39.552331310729905,-14.248790832718878,13.276230886892304,-22.54886495696661,-11.95307868129071,35.35358866178545,7.220511473772126,-22.175389498473695,14.279609517028554,6.648767282903368,-36.81738167566256,-6.755897436583952,20.080368552768597,-22.2746008893794,-18.819485641085635,26.597157782858496,3.488737386385244,-18.807826654528107,20.35849986971179,10.881248709901659,-35.79644883622001,-9.079069511258043,16.474799812420574,-23.774268534672828,-18.97269064018687,24.248113688602167,-0.8386398830612869,-22.096988303843013,19.00619034045268,10.732875402703764,-35.40132334984954,-9.757656595209452,13.52829769077629,-26.991275693826143,-18.800061318687852,29.58769678221553,8.831149666739108,-9.984381857733956,31.129843756422687,19.64780643438612,-31.154757661294255,-7.656113847592259,17.0508587339854,-20.515331785301203,-10.535840671105609,35.449746761080306,7.847156866735659,-18.967248138224846,16.74571270215959,5.311421178179009,-40.72773965877553,-12.11260626981246,15.715949507060742,-20.972820966907193,-13.254797482591288,29.10339527658425,0.5660687914824258,-23.558609524817623,17.003827765688115,11.345946804701715,-30.51915678963379,-2.2722355715072986,21.25117660662279,-19.41435336894749,-11.65039946349774,34.59125825755671,10.82267280319709,-10.777952059171366,27.772088463868833,16.272411417320956,-30.844981971628062,-4.122312525212685,20.721208982257423,-17.81658014964142,-9.362641570363653,34.61297497102079,7.736269289854823,-14.6606524174318,24.826032368780695,13.665901497393719,-34.29370234866335,-9.601982920201632,12.62005657548848,-26.425413453811565,-15.021731004886346,32.51483129016966,6.901794466348548,-15.78855246874028,23.641427909629694,13.074268056293683,-33.51552308793321,-7.510336570923183,14.231597572110333,-26.770464693482843,-16.960624049688505,30.642058428700956,7.433863932767332,-11.954156956050172,28.831822253662246,17.469727433226293,-30.42074315607896,-5.39575174789201,16.658664268807456,-22.564430620580957,-12.31169378189545,32.12452030080268,4.487945429655216,-16.93513039367629,25.472029920009398,19.049516557109825,-23.48986870584769,3.3970629347093,24.417588343869717,-15.983923738343904,-7.2434017676943,34.18200470250358,2.9251314836882045,-19.922323595061467,25.450153873183968,25.262278208998907,-12.33596819420105,12.313392153975487,22.484821143588803,-29.121513289837832,-20.818867124204942,31.87482051876609,13.406086766097275,-6.601406720664605,26.978921433472912,6.661130732024347,-44.950168435765136,-18.234243856488842,6.580599799304072,-30.15619387973475,-17.035125491607157,30.949601012120294,7.92452890801507,-9.234680531196632,33.9574836113484,24.989389688182115,-20.605016707137235,2.6658531778746415,19.47417432468628,-22.00845997139468,-8.760063898662619,41.80708137114502,21.01119927353193,2.3367289098008213,38.580665442831304,19.37674096597415,-34.590638846132435,-13.03052029007542,9.217363055520384,-22.991920665908154,-2.1913527393338654,47.759404612447675,17.786323004663465,-10.294849261865611,24.54700098941084,13.90405014825326,-25.814836831004364,5.699974556178333,25.28242750618668,-19.94395676987717,-13.471413175551657,28.763420727980318,1.7632788296718473,-16.147728795406525,26.897382440391553,17.488548640569505,-26.422268613966523,-0.017133273259481996,19.061304135794007,-20.01285911744639,-4.616010268799323,43.682435952115014,16.43080257620532,-8.033268252769258,25.929895239713986,10.265215309232383,-34.16672321262021,-4.867373270775683,14.696465349221672,-29.116024136769262,-19.957898979039562,26.19117408716243,3.036296044182169,-13.436988542370175,26.392856135332167,10.602931617447002,-35.68410351838053,-4.071064704385158,21.282782005664348,-17.57392122487087,-8.310677390968296,32.528233642358515,4.173678924040374,-12.927236278831888,28.459782079963738,12.757884180083234,-36.28290169325847,-9.041962828368689,15.44735917180777,-18.527753070014228,-4.940295919266779,33.395051494917894,-2.440813633274999,-25.048896869571177,18.884299740851194,13.630193254123192,-25.703531690717305,0.9858363560325039,15.002550176760694,-29.799114533440843,-18.990819821212018,24.87563505713242,-3.627299826702121,-24.296415556769606,14.84146226639863,3.2075099928526853,-38.6737859223604,-9.663643171494947,9.050097787802398,-31.36121776933715,-17.664045910219368,27.1166308145188,-1.3034002436577055,-20.57281391956619,20.550401886310507,10.438769940322553,-29.006796488240546,1.724384424158405,17.846632811312006,-28.423559740915195,-19.435660974260152,25.86279411070757,4.279815230986312,-6.330613959983305,37.9904304859185,21.78973730373932,-29.254882998260047,-5.87784132147867,12.923861673263998,-25.50609841422581,-13.048648584572573,25.84997226016438,-9.30507779832821,-31.106234126288633,12.363376521375894,5.179254227916575,-34.26593256357491,-5.93518372896337,7.897082652072231,-38.019658705540195,-26.605757928713448,19.326291255149435,-4.821131978522711,-19.08038552656213,23.005012354183584,8.739694533382654,-36.4551907422872,-10.050786904642635,5.0490342578307,-37.41415194296414,-22.774601048392455,24.035837901373483,-1.4696938768393863,-19.039855341307085,18.166899431753727,0.6124162865602809,-42.97426624017842,-11.503228689171348,7.916130863421335,-32.796643257798024,-17.835234311033055,29.556117666943752,5.844650623904119,-9.3557157683968,28.215603121157287,7.135492959946113,-42.04329558803708,-14.343693405466095,4.637956085395208,-35.63420981105055,-23.456393415828906,17.004753884573535,-12.9247055982956,-28.11062177300746,16.057172882502243,4.189576104868472,-38.45319234014055,-9.327685315716133,9.952581396804447,-26.311165077431482,-8.372039560233876,33.8277743756155,-0.45582426095743145,-22.65218328560009,17.017776851628774,5.599609309552598,-34.32305638560855,-6.129733282667125,5.930197719184644,-39.36233201082887,-24.56883238573809,24.2374300622143,2.4558439918893527,-9.40063444799545,33.08989556646281,17.412834241640258,-27.660868798232887,1.307859759462353,19.97905276581279,-18.799432796079493,-2.8860765712623095,40.715803735816955,11.398635295606983,-5.351887762583699,36.37196309739022,22.530977601076867,-21.248295245371274,4.694618527554063,15.220663578979753,-33.00319528953604,-22.725059017377465,22.654466423197945,2.4419605844206025,-4.44252843444036,39.41776198005853,19.01087018674382,-32.49916318521045,-6.383176045954803,15.224901793410119,-17.989870867612687,-0.7678985118647557,37.25668654536206,0.7717357126507949,-18.504529908936057,26.048268326260995,17.42847035301212,-21.454944999462192,8.144459703844053,22.212048770530153,-21.213245573087598,-6.973920797443704,36.80624385029937,9.154906191774227,-5.378000521282213,35.97275663396162,19.774274272624208,-24.534020933934904,3.962666563002532,19.623483223363564,-22.461236870024848,-8.824320168208947,34.044468451762626,6.902882427181879,-5.937135557050752,37.47999081428571,22.69934226222562,-21.572625073490194,5.827816033185901,20.54440255600532,-21.114028904542124,-6.580982462643329,35.85187773378275,7.128528022548949,-7.6245327925404816,33.279815997605084,16.265864303716288,-28.090746686334484,0.7357563275353556,16.80186168274747,-23.17847663742049,-7.207496346280813,34.27572414968619,2.692418683835996,-13.991538202138909,27.872949502920147,14.6583407510633,-25.227693886714974,5.702577554372766,19.88343095311778,-24.69274894240869,-12.901772562185243,27.492708343458954,-1.0983285706455916,-12.928084956552077,32.040255715756615,19.68312384145225,-20.702024336471162,8.180993764233946,20.033312022968804,-25.178334652418066,-12.212265537019764,30.173997510693948,3.0261030281812396,-9.091989924941956,33.341421870443234,16.868224940635137,-26.57706337451104,1.8018797803310846,13.83857812655907,-31.679771685152236,-18.732769155333838,24.569481387811557,-0.08749478315475656,-8.94747293330731,35.00432609841502,17.556334224597684,-27.617395555567462,1.0329364543805823,17.595919253630058,-20.590855554453462,-2.7284589341309804,39.03841721025547,6.949721369375947,-10.284289843219511,30.670765988624062,18.01448293744877,-18.729764370680776,14.238114078207794,25.890788727083248,-23.818411825033316,-15.568509694232826,24.81047516578177,-0.7539439123270206,-9.39307559179528,33.12453223793151,10.728967282825487,-39.33228990066209,-12.115678362239803,4.922178070963134,-31.670913863778367,-11.034751380164272,32.35607719056553,1.3426594720074334,-12.669481504973014,30.91362036126072,16.362328647272086,-25.67230196624006,1.6575851513082114,11.094574536141058,-34.42775449206825,-19.007143817314947,25.813058870412753,1.110999485612254,-8.868954321133149,32.76216400206205,13.547327484018783,-31.26999086783295,-2.5597892736655723,11.085280195007106,-31.534945089335487,-17.750295050456444,20.929128265796468,-10.417682989920468,-22.390820677843,22.661033362590008,8.926918507530909,-32.09038653988463,-3.620415281186329,6.834270240980696,-38.32158686235401,-24.744993892763766,15.36378499853571,-13.510904741340468,-22.931888069994518,23.417249863155668,10.376545005540962,-29.28057535202788,0.12572019804207812,10.088831139576747,-35.828632120348246,-22.696934771709394,16.866574096163646,-12.820949724265201,-24.06515468201669,18.8575544998514,1.230743883738974,-43.15977548214516,-16.553046435917242,-5.378872792226964,-45.64451789182476,-23.486885102227284,25.386513230555245,1.5209952732481788,-8.173188173284984,34.22110891704597,17.111057905045246,-23.984789336185223,5.573903410405823,14.931801877545979,-31.13884746794608,-15.849843320236715,26.726353497296223,-0.8992933876706992,-11.966489686956695,28.55666269965019,8.38788746791074,-35.38368280503193,-6.493405817640541,5.76383640036373,-34.73592363718319,-14.641847216773575,29.793430667264342,1.0592312615653938,-12.582727587506437,26.68526622894279,7.938512959900576,-32.96758672532703,-1.4021400576135115,11.401195614110646,-32.237528711921065,-17.816263067099374,21.037590421465396,-9.952177510720304,-20.03555674389044,26.062067014402764,12.838925991993406,-25.13146654184601,6.762929321400627,18.689496923655085,-23.62358990238269,-5.163640045825716,37.92126607080792,8.798237767608832,-4.704017713482211,31.95253226368736,7.752752542260572,-36.52264575341836,-3.761087591688117,13.789459193116546,-23.476274556825203,-5.5092927057688375,31.033974328176924,-6.152293414621013,-23.490365229481306,17.226431566586818,3.8633288156888703,-29.416198090032594,7.295968836281467,19.51221089282223,-28.397919159275766,-18.556732327288746,19.041697189321347,-7.012550277990176,-9.518818311630227,39.518972756222006,22.59745079007716,-22.359975949159438,2.6214908881939536,11.056743789045168,-28.63174146285222,-4.685012838779951,40.68539199073451,10.709645977191787,-3.156657746320053,34.54485458346217,13.117345617261291,-27.085830646702444,7.006418949780819,21.145770610712336,-20.23834382781692,-3.507610827508742,34.75878928068247,2.201639843875128,-9.752259926800232,31.598102306138664,12.651524780143363,-28.378079663688425,1.7788618307706834,11.025863299952764,-34.83426256149693,-21.076113777279726,17.974715368211893,-8.637655851010638,-11.56275170548107,37.4554182033693,21.845628166469954,-19.55171617905501,9.906187409645451,21.839905979208613,-17.1633703827072,3.5698217969899844,43.73243897456607,9.964175113194644,-5.519129779704759,31.07670895317778,8.556974856249687,-32.80715703948614,-0.7882125802006072,11.938838604047774,-27.848989893376682,-8.512353868366745,30.119564754924852,-3.898614247543069,-17.047721187152543,24.877036079583984,9.346344338421064,-25.85189968455289,9.509643431979857,20.602366613976358,-25.798809543868288,-13.167273220659027,23.86337290636648,-6.061154416474928,-13.024280932361883,31.31068080169753,9.952466304511045,-37.53547501967427,-12.768526241815584,-2.2036987896016527,-38.16835405639052,-12.418386519022558,30.230171294003725,-4.8373089599566725,-22.30606172696723,15.825742877343824,-0.03662811184866399,-32.31798000186778,5.7131041723641225,16.88601580730908,-31.174573098553765,-20.551088575591645,15.680922788132035,-11.322059572894805,-11.763350704036359,38.88955884473299,21.93528350946166,-22.999340446452347,-0.34900068521577055,2.1604727991370107,-43.64180394355759,-24.25622783361532,18.805952451870937,-9.02006769986335,-17.481365440237948,24.52317859436628,5.17358751184552,-34.61388563347559,-2.901174107940662,7.933198348885982,-33.11114457729988,-13.23452032960967,27.26548017644157,-2.965613349752477,-11.773880312065305,31.032611471121115,13.203318088851441,-25.132021799768236,4.908516067948142,10.157272398308216,-36.77981750113614,-20.07967720558208,20.266976358507584,-7.4664005961307325,-12.704324899406984,32.365335631214165,15.956931489751092,-18.793508253701532,18.425180903817957,32.577109379423945,-6.969128840599613,14.545833065561325,58.704595939436615,35.623255750403516,37.32934868851099,91.59262064832525,83.9392723576897,53.98201520825574,88.966106547912,92.18284717004224,34.018811760284684,32.17709800005005,52.849174424264106,9.838997228092829,-6.884122413620066,26.419961208316913,-3.810370503697662,-53.4148234693701,-29.953982363228015,-25.830570382365245,-71.35696876872328,-55.33941079464035,-18.506918604797836,-49.467758605694144,-56.60009483194477,-14.694808454741718,-37.18594569150662,-79.480275065325,-48.933526232114204,-37.49307097137566,-74.37374231539141,-50.387901262834404,-10.317534663787592,-42.212687266978975,-49.94720823730084,-5.0614138995330045,-20.1482094996193,-52.72270175391132,-15.17446558704511,-2.89277073146694,-43.54284305918152,-24.627170391048885,10.76064770417416,-24.295745902785036,-32.88522371908911,12.187947207231542,-3.931161404634892,-40.013286917648834,-7.9912387635459226,-0.38835053663006747,-41.73350592098561,-18.725625738541254,24.76852442308585,-1.2880712126576057,-4.616476443807215,40.9635898070546,22.419107526965842,-18.125545138456395,8.873263909814458,12.844999475305759,-30.126145613677235,-6.93564051903134,36.759525928886525,8.289167306782932,-1.309101640447567,35.099581055084535,10.05924418051678,-27.57210667356433,10.349666713870327,25.322349484220773,-12.886845877443115,6.217687829833794,40.022614452142335,4.844832403444972,-2.3935823596598325,42.07283474511613,24.06592215421937,-11.617410703340608,22.400942895720895,30.561799016809537,-12.639481708718225,5.2776320071664955,40.1063766928472,5.585123526241446,-2.3078858054007485,41.66158010167,24.345534532714908,-10.90772546940822,21.260647382005736,24.65211025653337,-24.054051430848396,-7.8154677407303605,31.51849230969671,5.414851306998909,5.4970745002232615,52.90680862111867,32.962621250158584,-7.567137531720121,21.984119297396393,27.676141192382122,-15.224058151081195,5.661553038652807,43.54984255657575,10.080722367670177,1.040581467854631,41.30736300186367,18.40902815272824,-22.06888424566356,7.442463078275573,14.026758231655771,-24.531714027524124,2.187541394589907,44.554204579136425,13.448887896765576,3.9922869859095864,42.926691853901794,22.274224900784464,-12.118971037311775,22.12288701107003,27.02588060712805,-20.564503804367664,-6.201568106392468,26.971329441696483,-5.393040543683803,-8.635981164222688,37.124737172222154,17.270488558998146,-21.455672260217213,8.049629832323209,11.383332672285563,-32.35416529850145,-10.066092866191868,30.41836307813098,1.3831393190920238,-3.228276721281871,38.1205003811492,14.661750278129798,-24.50220495441136,6.015627031555461,8.922978926335274,-38.40524075282241,-22.42987300241273,13.611108568813883,-13.165663060453333,-10.29452488831313,37.25517413914557,13.292573968531027,-31.97867223969071,-5.706993798392606,0.9609311625956454,-34.577935075565364,-4.6868078561660536,37.27369977463784,2.9853600163661014,-8.932646123971566,27.740604058940704,3.7435963262003575,-32.40797007827748,2.976015053446453,9.87016249532187,-36.030505905311784,-21.698690606989054,7.933504699419725,-28.949733798604676,-33.87782842270671,12.866207154039778,-3.810058127543284,-36.98707858310903,-3.0188434250782556,0.43882854825308115,-46.15340307543884,-28.453757531892975,6.2004368297541586,-26.00278530289794,-28.155679305425856,18.8333528526011,0.24642254833932853,-37.669015512846975,-10.421655669380076,-11.237470959821929,-55.7406072269565,-29.663995913019388,15.533597865223145,-9.77148729129025,-12.006861073090786,29.5357326905107,5.8339461579276595,-31.501625362390396,1.3979135619097889,5.679862126215413,-38.270345499328755,-16.678943505348084,20.388364004455937,-12.792400101845086,-18.687228763510042,23.30438410312111,2.484183253929551,-30.514797066140044,5.849588261180877,10.804930758844918,-35.41911160854427,-18.741979948393215,14.00678166094951,-17.818541813410885,-16.459014023306388,33.63654227995893,16.581934401423638,-19.100472492119426,10.735915234192994,11.501107321822335,-32.27231237877255,-8.350563291367664,30.17365706480353,-2.2885971596556303,-7.510131002985426,34.737843043237355,13.447344634686573,-21.390943527000317,10.802134747438107,10.922756889259292,-36.18467695766343,-14.741612592571839,24.52623117362392,-3.942865273411062,-5.226118699685106,36.781803697920125,11.901506991460634,-25.816466289333633,5.7407779781948705,7.32537333057451,-36.614679057698545,-12.762136311198944,26.37894767641189,-4.072923356206772,-8.753001521956417,30.76627479431603,8.134072556453846,-23.39273072201965,13.849956482424865,16.657007995242623,-32.22447400911967,-16.183330780016632,18.600204200514376,-8.884179896253212,-4.2306329247262235,44.513228335938386,23.944500045966628,-12.764144863942846,17.935884100380257,19.385908793843292,-23.463875702816708,0.027288811697999904,35.03477346130438,-0.7866928801807269,-7.2026020463288205,33.944582433306024,12.638335050082068,-19.580390682782678,14.491014432363137,14.992809805108635,-29.92432295770632,-6.669702600470185,30.351642351196208,-1.4309639641083471,-4.4421423685715915,36.1725567591365,11.275761129235413,-23.363372242464557,12.643975809784788,17.754069328057852,-25.071738789161373,-4.597476245216345,27.14219133977523,-8.491046949346693,-11.514185317794327,31.745242717499323,9.02615909322476,-25.525116371096015,8.741838834405979,12.346352622095441,-29.633803667059176,-7.8413932744478,22.79278217812104,-14.769437140889295,-18.0417373142519,26.860642952074947,8.239596454921333,-21.196297342348807,14.232388336320362,13.461574534537945,-34.25834962417979,-14.30729795821243,21.078762920115693,-8.149037576181058,-5.948941338959237,38.95869958054148,16.684976070485444,-16.84101792230436,17.588110702256934,18.91141593932861,-27.793487375489736,-10.3714906401882,20.212142855267892,-13.423855608334467,-13.393538500274296,30.758118362867076,8.009707546363735,-24.990874018705043,10.800968920264793,13.594281920987065,-31.214549143715633,-12.946142077816447,15.846689818685842,-18.787114561706836,-14.75588397037241,36.691624036900876,19.394924945875147,-13.903409540915714,15.195055507851306,9.975855998952762,-36.7736214165496,-13.498556801353617,21.461130577973126,-11.775830683488085,-13.608469028188471,28.26197618861594,5.3707539902799155,-25.951004378886523,9.941983187063087,11.842323634090127,-31.57998837497301,-10.273079504679579,20.48511704789872,-14.882610263295888,-15.074685490183581,30.693810836739626,10.9264405675933,-20.03272268469648,13.136844924591117,10.540622132523476,-36.26738647290017,-15.868155409188722,15.859005490939346,-16.46506759841109,-13.350628696157086,31.907648040781893,8.031740896273416,-27.036675023275087,3.5130047685076633,0.6435375222821902,-43.05258227188891,-18.259032511973803,16.099276884464906,-15.267077540165936,-11.842034503153592,32.65275905361714,6.763622626025214,-30.449407693203312,-0.7893883090599978,-2.8207605750504925,-44.75305636058167,-18.433560437869005,15.525592718781112,-19.563984149470564,-20.461635630160586,24.6875712208409,6.933509467043137,-17.711476350699545,21.722193028371585,21.32758923542228,-24.941767040625592,-2.529133566525232,33.86196229461458,10.042060093880945,24.09043051117766,79.7898013854928,66.25432169706755,42.91538703611343,85.92499929639379,94.91002319822404,60.37434701589798,87.40884837570113,112.93978163139698,61.52884007201158,39.157629606070735,61.76996167778081,25.405300184454887,-14.046061481066975,10.783963479736316,-4.187185995681213,-63.96466629233829,-54.43460344401289,-31.16919297882686,-70.76786315162295,-76.2071646870625,-39.5105867709689,-65.42105401877448,-93.00816455990025,-52.60286513283,-52.22451173983694,-100.31773505115338,-83.20648270367249,-54.28042205248677,-84.03488973192121,-73.55430394909959,-22.730319097160283,-43.46317620196147,-73.80798514148611,-37.60521943039748,-34.80937898908128,-70.98434232987844,-39.037746874436934,-2.4463363569061762,-35.9195003373046,-35.26186405090892,9.241150122646523,-9.254675355633278,-32.04150138993958,8.829348522372872,7.243236792036031,-41.306511458060626,-22.85431488490626,6.663453553698266,-24.301267766585052,-15.921230529270249,33.80005310470856,14.8180134026493,-12.513072508305589,23.05267905921907,19.93684956971081,-24.242627923315037,0.2874367824141508,32.50928241597187,1.0538866480768334,7.829737095017814,54.826129395435466,31.739308010649022,0.006412667445550468,31.70240899888323,25.748901246409403,-18.790202441235245,7.2602605161019795,39.247065220294104,4.462307145420194,6.279378536363947,48.11406247440554,22.641554813898097,-6.393955660641142,30.727680533149524,29.584057500026457,-12.321117759934571,13.332788151230933,42.66670902407858,4.8153212245398365,4.632433337659686,46.40140701885559,21.93454015900433,-6.513926315380367,30.17921521278019,26.37370107960752,-21.199812844508763,-1.5152050091646938,26.014133350807338,-7.659260985738939,-0.1243122486682342,48.98433257236549,29.266987352894713,1.7182250498311884,35.73177849605396,30.012663379863156,-15.297899608666604,7.763904111573094,36.09053433854935,0.7836092681710731,4.18716570872152,47.07412042015986,22.94741669381842,-4.556448482807457,31.567773428267294,26.57429040858253,-20.03297173748068,1.4777987496343528,30.04513504497871,-2.657937558530385,4.369894918625981,48.620178893080116,20.34912331026409,-15.476735383232153,13.908544364376624,8.239642128193305,-32.78853012831832,-3.0636394080842706,30.648313979273773,-3.24569697600586,-1.3756847473027687,39.67632237086523,15.339473030675771,-10.556699383176767,26.277361051573003,19.264345169356893,-29.867638134858737,-9.500738252464535,19.15613230089803,-12.856480390218227,-7.313543789505498,32.0872592525443,1.2538427281692748,-29.690469896832976,9.463217125208754,13.986450167136589,-19.265395893842367,11.449865544397031,37.58069835557112,-6.686012987619986,-11.297320245657176,28.50821725816059,7.387061897075283,-12.743102810245006,27.516567732589102,18.735458435262494,-34.21761611647636,-16.66780166288731,9.428213961899024,-23.657113756921785,-14.961984021837804,29.723802545297843,2.3848531355430715,-28.98030797066925,4.01229861094723,-1.7357753276977856,-42.805052915893924,-12.814043893968439,19.14621505774037,-16.111032819213175,-14.99290113805318,21.6542401053338,-9.18173364603221,-38.008802410144966,1.0569074671507117,0.8925877397529405,-38.877323580624186,-12.930242085733411,12.86086014586052,-26.372710689992434,-24.018145537899038,19.831031485552813,-1.602505896000551,-24.7062991350068,12.92194623524017,4.674005703419544,-44.20078270086689,-21.060447037173326,10.884759030928965,-16.502002619813915,-4.511205681653708,39.129530840591286,8.370754425752738,-25.8701236001296,4.872273420506154,-2.37387375420664,-43.04791748588309,-12.24034585341398,19.780451692746702,-14.223795407753236,-10.757558263730338,27.602219913133865,-0.7940786143804139,-26.162458427974578,13.631028484922883,10.304009965366209,-33.09433651067397,-9.64771893249841,14.564064061230074,-23.318706574959236,-17.1703019908515,29.171571695000296,9.776833260245176,-9.614832421935088,30.722066604402773,22.7196049299992,-27.31006461593109,-8.398080916438253,15.675999147214462,-18.603556883783376,-8.991880275262156,36.10040891916073,10.47709148905393,-16.16730347595527,18.82580576553857,8.77222969714944,-39.74771783702378,-18.742702520230075,6.1490468328751176,-26.36642252270866,-13.599342195913975,34.04295058745747,10.226285876382603,-14.733495729107041,22.03239588572812,14.963541178653168,-28.89269218462426,-3.5882452789135115,22.25496410800404,-14.247404807409744,-9.30922319346034,30.087683595241995,1.2079247633952583,-23.634733854410065,17.460184301314026,14.632022111825387,-29.061217344963875,-8.044656301669106,12.145194027924845,-26.17765102506396,-17.45630021922906,27.08770012106786,1.130582136356793,-23.585408424316036,15.712493684740476,12.899865303780814,-27.136315177275158,-2.8799901066926754,17.005305009019217,-23.086863874215844,-13.632898959827534,35.49771308069247,14.57117902979389,-9.107364268653498,25.90589777417305,15.239956487824605,-31.97794744202683,-10.455311581614538,10.722236429213453,-27.264314020219388,-17.498067204614404,29.780538847494128,6.478183431378088,-19.049467296434827,14.842253035837569,5.851603275723747,-35.94955212094425,-9.199677944633482,13.8017088252493,-24.298218421115216,-15.025772512933218,31.902119481161456,9.838766753733807,-13.495901415488747,20.060973264036868,7.050822276284393,-38.83407454958313,-12.33330724638978,13.23002994145042,-23.633881508834058,-16.65490489903332,25.075780624211923,-2.3973894065822705,-27.444656088835746,9.560243197481402,2.228612647960757,-39.99473730459801,-13.330228444155509,11.41464134096651,-24.363348590140113,-14.428854075814922,31.269012338901668,8.498066460207315,-12.505176357538854,26.22912904419413,18.434905866002616,-25.78832256628302,-3.39599441679594,14.514325265749386,-28.070316115908632,-22.67534008662623,20.502762915342807,-1.7829766132612406,-18.81159820122263,23.79947237932572,17.30031852817556,-26.9997785507445,-4.762225700961725,14.572976475567463,-23.25951566725952,-11.04552240318785,37.84527734595703,17.189116293814838,-3.8989808508030257,31.004054241757032,18.173477738005808,-26.78024857062828,0.2661598436910495,24.033179283303227,-16.096003873823296,-14.134858916784905,21.093494774757463,-8.093016894241742,-26.513844631350562,18.949851692244415,15.898461028659348,-25.865633714276857,-2.9798013385591133,14.014670597411671,-27.215679360537198,-17.20697032647951,29.779939840776393,7.845388267859871,-12.280335809850216,24.0600614061444,10.908803339678258,-35.61862178365636,-10.506286856499122,12.536864069532282,-24.02612594330654,-13.992969489684759,28.832730532944417,1.5367835542809445,-21.48983155007045,16.844834957270262,10.80542516083894,-26.2209422973349,5.996543747696155,31.010215982864906,-8.14484756115623,-3.0859428618283467,36.06317693585973,9.323040821553422,-9.884073699576392,31.250868818606236,22.463641755741598,-23.168804805977835,-1.0637777789991638,16.7352055902129,-24.109403169581853,-15.361035321331359,28.93972678310677,5.994078614938173,-10.643539712961147,30.928135825068317,20.786021602133367,-25.266763311998034,-2.455194342922784,16.968633167940034,-20.16823643047444,-7.902460383911366,36.5942436717968,10.739269545028232,-11.101217269960564,24.575164371980428,10.62786541686199,-35.98581534975348,-10.51785606667211,13.500538754182646,-19.595220982853274,-5.177786373832642,38.49207632405427,8.745648799688272,-16.668866388014077,18.960290001058567,8.751677619812797,-31.70976735110394,-1.4466159100747333,21.938713741144447,-16.375820533917917,-8.114492259816144,30.885390396092923,-0.009360431659814594,-23.44331193325074,13.924504927365017,4.779399644970816,-33.786753586910876,-2.0112660823604998,22.232017332988637,-14.740488777387498,-4.894902776178689,37.807365764873396,15.423144027615262,4.204352429825699,54.83800567997842,57.5151511302131,27.448176590980893,65.03565431895258,93.82155346640045,60.96978345059972,75.168756429647,119.87498362464281,91.39986217481754,62.03027009520487,82.38072417660878,47.659506829715795,-17.561954223686705,-6.3555829286751155,4.467294036524503,-41.666587967545745,-39.80793653674449,-6.487637722326925,-39.4376101115124,-61.12872345755325,-22.98700552827557,-36.56367606590341,-84.40109664985327,-63.27682893434569,-46.22162514771252,-82.60409299346644,-66.26946393382329,-18.86407871134317,-43.24150379119657,-63.85201919806158,-28.689232620235718,-41.44206488391365,-80.91400888783897,-48.96624557176022,-26.21948059163332,-64.63622598268323,-55.01447970271599,-13.7951004072994,-38.911567360227544,-52.752462611562365,-7.252381423254544,-12.540657445989066,-49.59064160470872,-19.094031576603427,-0.17257538187571964,-41.873728235516865,-31.816003710361237,13.558546104879394,-6.770192408200481,-18.796487637450525,23.350664420697058,9.936532272347769,-37.11849306578381,-14.252509813058214,3.2266460063785027,-33.63647892977618,-17.949987882852874,27.987145977538706,3.3507905288849145,-13.889216639293728,25.81390035592966,15.542207632120562,-23.61291944040862,6.492509809883732,26.041782592431595,-13.502503047592032,-1.9782002895845014,40.88398684973531,15.06176840913611,-2.349306324165452,35.20866775871489,19.154258963694886,-26.158238026468474,1.010862473517708,21.706011807255035,-13.062521769813019,2.8435803631302665,45.47827251513351,16.90702242399568,-1.876941082938791,37.21247923039256,26.045384765398634,-13.480750844000465,16.47251556221309,36.20172618890043,-1.90338040286494,9.844649868147151,49.27287035471329,18.820502199558035,-1.7953192430850358,35.14891515254706,22.117257394685545,-19.677550301291838,6.641560077556214,22.496587471815815,-17.352001731445224,-3.6160932221154205,41.11780429154753,16.896859873474376,0.575792000757116,37.392451120508646,19.70273846539947,-27.50989088020809,-4.190740497927624,10.879016489070835,-28.173011599406244,-13.297150072099132,30.631895839437643,4.4369414921729895,-11.713056840044908,28.85027444440661,17.804553946563367,-22.457001094200727,4.4959925343032054,19.042677069479613,-22.42266423948513,-9.528822240024162,33.80886775644569,8.142325138708992,-7.098219001480276,34.00005925358821,22.69342916397097,-18.234485445549364,7.582443460360949,19.463107276319853,-26.11137448394483,-16.910623881587824,25.063511929730527,1.1047343560298906,-11.158798918544987,30.291465921865502,15.659700673396834,-28.767868569682037,-2.8593449757996865,14.098418297850554,-23.663787898083815,-9.78323156850844,30.536214198621217,2.2324109043284075,-12.345771167591714,30.07466743355234,18.662105969728046,-23.483010970568756,0.6920355900301338,13.62570614198222,-25.709916377489083,-9.558065655338405,34.25559472416803,7.451477538193631,-9.800904681477629,26.37742453836518,9.71884899879975,-31.599512244066574,-1.0653560976551582,17.68576261976722,-20.661866835824238,-7.764289174339197,31.522582717919718,2.7061179978660412,-12.15265877054279,28.26880300407997,14.069885284891544,-27.614837072379107,0.14499104205437519,15.301855806318052,-25.40416831859367,-13.77085000751482,25.12525091912938,-1.8349185145481535,-13.384652141389667,29.97199742299737,18.98895693280871,-19.230165734182478,10.002074387633556,23.82830396166137,-19.34366592765116,-10.068347585837234,25.661177735709565,-5.456766758447223,-19.896160533656918,23.06717199311892,13.347016585708186,-23.306794265716988,5.603341704430473,15.9336892842156,-31.707366956477728,-23.866577693223775,15.138653120105824,-10.1524606529137,-19.825641588558646,24.242298575066506,11.132906701019952,-31.916763340026623,-8.314140698342932,2.8297022246180052,-36.071580250677954,-15.8484789636024,31.868400513467233,6.811846815279832,-11.108544053783794,21.80990258718967,4.1436098066005425,-31.67838764650699,5.9269166253039,27.392778251573105,-12.952569775781193,-6.242502154255845,25.049521679439778,-8.197042166949313,-23.361435700323703,17.131143512151407,3.654100782998416,-35.24896733220492,-4.476221802876118,13.134696374869408,-24.789708522107965,-11.244296369857187,26.711048622177255,-2.7131492118381324,-16.12544673642902,24.51271160906886,9.372897444976699,-31.807198520994106,-4.154005375542244,8.704475367384823,-32.34018498954565,-17.60905463880988,22.83697104638521,-6.413168605330956,-22.084835958768753,16.06838634186314,1.1626075937582119,-36.427216230710485,-4.321901004340631,11.732057805301862,-28.322464543206117,-14.448371347070267,26.600473916731175,1.5479548834587824,-9.634319379042148,29.223320061688828,11.06516107396701,-32.009879403082586,-5.966242960071845,5.574266277099891,-35.572151166817285,-19.83705892820552,23.76383154774303,1.375924287030326,-6.270973882809027,34.901063734241255,14.933322363366724,-32.14008243958561,-8.090117814573347,5.0552282131684,-31.271172592534107,-10.27469475184329,34.19558206001212,6.85972393618221,-8.129315185141001,27.532977994015184,7.099675815790032,-35.4623290112844,-6.575640296300174,7.7483938284761225,-31.580087261168913,-16.651095878797133,22.23903694549015,-6.166882509695505,-17.66389636539791,23.325761140600903,7.19152639718202,-34.18497835946566,-6.802241644089781,6.05894524268759,-32.34092775344584,-14.575717103737913,26.100821431622773,-3.0313288846851165,-16.377842318504474,23.692654797994756,9.340940912869854,-28.083597682655384,1.438683660157519,11.9183882024384,-31.407572968138453,-17.768566580309606,21.26946914383081,-6.416661903307602,-16.74897653880081,24.43864849753591,9.210670116096326,-27.66648455672506,5.125578769644896,20.15046525062852,-20.41147694807044,-8.95342257056313,24.338183888522256,-7.4103965107249685,-16.347875050252537,30.656384220860346,18.87480800645146,-22.504044747719046,0.7609131681490062,8.182706300744023,-32.825345170324134,-13.881589232520335,28.391304201815984,-1.2700442952067839,-16.250265708263886,22.957387442501634,9.005404643733968,-26.60767830800014,5.816106848698233,18.634462394581508,-23.521943191803835,-9.534310427628863,28.502116322451688,-0.7140640368879261,-11.31821379313966,30.211899232320484,14.534725800206484,-23.658672635057208,6.218573011230571,17.490414259118136,-23.292937216784622,-7.678143909570611,29.702085069267824,-0.4954615732495711,-11.570654469815212,29.211170052883766,13.088153569896148,-25.652614362674782,2.461461020502785,12.051434973172016,-28.33992333206699,-10.218712945857307,30.121459847851884,1.522252368091788,-9.440446743531135,30.600674928633595,12.940510984134502,-27.046010656476557,1.5458167047335394,13.11602862839436,-23.867003090700877,-0.9747836174658282,42.91617419668948,13.969161667546913,-1.17053867596302,33.617553771978756,14.42827885443749,-20.9955669480754,14.54418842548571,29.494146917395803,-11.5771374774258,0.14391611583785746,32.35363440482649,-1.191280787837698,-12.928139501443392,28.396355619729732,13.470488431606217,-22.459911114410723,9.294190283694952,20.348343979413375,-22.655584504043034,-10.560809363970229,23.660564338486317,-6.360875834266018,-13.509151043429707,30.979270832007693,15.752833997601716,-23.390360889925713,4.3006382080197305,13.991121568237325,-24.292865934415254,-3.506329890363686,36.72913020371548,6.757347214990727,-4.6262109663044075,34.51267612897952,16.55736168444045,-21.486135706103507,7.097593708980742,13.810827432981387,-29.840175480071608,-13.732273594096815,24.31640604102769,-4.310225942285427,-11.67834182657186,31.31693920457448,15.318324929230547,-21.853082036088086,8.527062593517375,18.59223140791994,-22.077338448348858,-5.553639545295264,29.488316051584327,-4.6872315627677175,-16.945548926922566,24.497124458653648,10.305370342068084,-22.93700940390812,10.831281572190264,21.266766448549042,-21.535714978807675,-8.141442798586347,24.62874133057298,-8.276022013784903,-16.067901539666458,29.546060826411022,16.900677010744307,-18.315778327588674,10.26414804223377,15.264256473287523,-29.726875260334488,-14.432040029819298,22.19825800558496,-9.076332973337156,-20.805944498271657,17.57671479363649,1.6570771771276114,-28.581178925123574,10.00383210013668,22.860695064520858,-21.722167306194613,-12.72352299016761,17.5149197942336,-13.487471226786173,-17.988383000089716,27.412635637812635,10.62158556150363,-28.74895719554807,-1.3600464928102056,5.4976772037854715,-35.73542136062447,-17.12629518283459,20.377547370955263,-10.716920718216471,-20.22547884632868,20.12786675725281,1.1311465497005706,-37.246392065665546,-7.093483676741375,3.2673303972934304,-33.61252484350558,-10.915893674130631,28.15585998597515,-4.567853924742678,-17.786406608148425,19.114500715745653,-0.25395110976649526,-35.738534311493844,-2.520325885324162,8.394419643860441,-30.62826627755568,-11.926047758400736,22.459033359772537,-13.115725150024002,-24.919981670437956,16.724736714133712,2.28109264462301,-29.709453230760612,4.582913742289801,13.189648469586238,-29.510365724348638,-12.250648676399305,24.541702069775173,-5.477428253501749,-11.676729003549351,31.423340031191174,13.410224564697142,-24.135942091407003,6.499499151532611,16.790363981543663,-18.299500724612823,9.073449831107538,54.98262429230231,32.25004295989648,33.226507944365586,86.72814367013629,83.54481337574772,61.54970465297052,101.37262143541099,106.9640060687378,50.74313353281657,47.1226154273373,62.61799454272401,15.304082362625852,-5.450732619085751,23.088998590691126,-9.476994677125237,-60.08505734671838,-39.858667142869805,-36.98881153325039,-78.86246532915007,-61.286577553779914,-27.85435972050987,-62.30268511093105,-72.46667589942786,-32.41609772989342,-50.3244383628593,-84.60853678764279,-51.50410144957437,-42.031194937423315,-80.9799032629283,-61.57254432885608,-27.122153206911257,-59.56517113218659,-65.49372184160465,-20.094989830139802,-32.38599103174602,-63.294829967944054,-32.16130102034161,-28.032799382729543,-70.25311154935801,-47.99781419703321,-4.894517873348169,-27.74696619564556,-27.730620777690326,17.9694179937299,1.3655916969707036,-33.480725487815384,-3.6612808785203015,-1.7259334822374761,-48.27740058174761,-29.960525524754154,11.17406274684844,-11.170492274070432,-9.220851867928264,36.09195040126662,14.68460690610614,-25.826573639515107,2.894210866876552,9.51067948112771,-30.55617785866047,-10.035263808148379,26.296846959192287,-4.014287451702174,-7.250977177117211,39.26765781581941,25.18557999742452,-8.224616361698654,21.081017218286718,23.55132262800985,-20.882265547828716,-3.3445525659573008,32.38434183999327,3.614742386725279,1.5915672287002636,46.865856041796036,29.3385588850547,-6.852549596137099,22.288921527765698,26.76729194103929,-13.682620561016739,7.442317692292839,41.85378986994373,6.962057085613651,-1.7967650457557371,40.10685380663415,25.303228723295494,-3.824870236429371,30.751240950617603,34.66819820530977,-12.03460807952968,2.464161788281652,36.30551109602336,8.018903098209439,8.545940173857732,56.18306722594396,39.74928109846344,3.6552724861942654,31.51459332774738,32.481282679838344,-13.876354398093902,1.2541011833930078,33.062595957815255,-0.3159829993941017,-5.567924114255847,38.879900080474115,23.75385581696391,-7.787819560546367,24.43249393116455,27.637084690603032,-18.377785191651803,-4.526849854787345,26.248783008988468,-4.479555029831911,-3.7781551234360817,45.58818443912824,31.537037213671205,-2.6020478551244235,25.460016170082394,26.876173568933766,-15.945744721804669,4.03269667217549,39.38991829185659,8.380579245614083,2.851473771930595,41.75568857676574,17.487839373540258,-21.96957605568118,6.906387346772785,12.900085925628414,-24.160551766466277,0.6973289078454599,37.87587987272802,5.689305696012767,-2.0762829441341006,34.97453346873426,11.241320417349957,-23.847204370241478,9.993370104929635,16.14511236178037,-26.5008102524583,-9.226974201808833,23.220940510237128,-6.750734374366946,-5.495459020292575,40.99697236065757,20.508721201160135,-19.329730508811817,4.034566651478535,0.7886328017338506,-42.90852451015816,-19.432235918611475,18.842828322119228,-11.00563368378592,-15.088558458610693,26.3045338601313,7.48107401815926,-23.80415926134138,9.519506365010756,11.493793700425766,-34.53016480619536,-17.100751830566658,17.041730529138388,-14.413503053407926,-19.02924880784331,22.485888009693554,3.773919877316928,-26.51270999373263,10.362419113365629,17.01177735624892,-25.9757247263636,-8.345006979868616,24.51743178022093,-6.4661529682036765,-8.81672746682467,33.262640852110536,12.237206982047665,-22.12758773952355,10.561368830200738,15.457534566715061,-27.008722941004947,-9.915146308855947,19.925275878843628,-14.747920934806185,-18.88377042355877,24.172881161603293,5.4198073026383184,-27.353318495264244,5.594112637312502,11.23907320608939,-27.640468012325695,-5.33827074606169,28.14975572453931,-5.1733303641437445,-9.03589794752849,34.35502612130062,16.630306651435532,-15.961510977486778,13.026891214223221,10.696028268623852,-35.38011714866931,-15.549377471895747,19.803430973258376,-10.36262762659122,-13.646143134214025,25.65545168094826,2.5674610965937497,-31.097513624916296,2.2825641199890683,7.010114698800758,-33.78518961294872,-14.307891256431338,16.69429834114785,-16.5251669487555,-19.60619548803546,21.774550025032234,1.242249967081527,-29.74236420059973,6.6606820915220055,14.215871454184548,-25.14228143508161,-6.963088397573099,19.546197665078182,-18.09375939636559,-20.77393766422512,25.83508798283239,11.283284530080193,-17.147717845041182,15.785355498368556,15.207843093372917,-31.114010130682633,-12.87646597293433,20.847454987946584,-8.400215677931836,-7.985338232477799,34.323522971138196,10.979164292151891,-25.435166260590417,4.229585095499679,5.5160027384227295,-36.541372219557054,-15.435813415860876,17.963358697167514,-14.495393334975596,-19.155967124427995,19.421913039240092,-2.4607612242691648,-32.209747224635265,5.514112806664816,11.470240813696023,-32.235663903730085,-18.10865822766952,7.676171095957403,-26.852159739872228,-25.436559616342514,22.294035068704694,4.735700191021799,-28.76032815175055,-0.45956538287336457,-2.879685305686081,-46.85968370752957,-24.26473801090788,13.687528567346657,-10.360135650737256,-4.278568873316537,41.68042730699269,19.851024387106293,-16.395612976240415,12.723836199412961,15.804742285502945,-20.142437195072635,7.932199619107525,47.04870736058448,23.491093528328918,34.022010705255845,90.17506663300236,82.12075086728774,58.61969447535181,94.97095234166729,96.28566575655776,48.928086847547235,58.8051865917084,74.39232815333659,22.29830004399419,3.260379595198618,32.35895774735856,0.2260558273824138,-43.13797271267143,-21.63191165416831,-29.814036489547647,-78.47576690055644,-60.2492289229513,-29.062522726354224,-62.687139504061655,-66.8115979649301,-28.924933330358364,-53.00584497513654,-85.01763884478302,-50.94222089373661,-48.322928002246144,-90.65044366745136,-71.49684501807971,-40.30355135413133,-70.24287499007092,-67.76495941648308,-22.9283572420738,-41.72451362640277,-71.10736838679051,-36.153089606283224,-33.32893398882474,-75.18884718874536,-54.35762809558261,-20.54367805480596,-46.5889956626064,-38.56812789084483,10.534637737285092,-7.913160893423715,-40.17207362706615,-9.963031178683195,-10.96287913983948,-52.69571778822049,-29.87787839920535,3.274512090264075,-27.003088645473447,-24.694295856986898,19.854754094842864,-0.17733697347953736,-31.50346809046586,0.6081213998537365,2.4980809466402976,-34.71820664757992,-6.6789228654096355,30.409379085030455,1.225462404310015,1.6016534530326725,43.22920068820363,22.824151306508252,-5.284396200966359,30.289632678125713,31.676042241432306,-11.544551723906627,6.683859642997467,34.55471041398273,1.870927223640198,5.262293863831448,51.07956822883839,31.053781471143225,-0.0053706232576864465,32.20162147599004,32.65975415786273,-6.614120297672214,18.27502740030782,49.600035867934324,14.90026949546937,12.796255056856534,52.80408699606992,30.08452828812667,-0.2020157302149208,33.24708473583282,33.43896833740208,-8.146327777954475,13.331884444739615,42.93847188163401,8.965409977683606,9.047196444200477,53.259230670641216,36.01281465641959,9.502391879406614,43.407077143084585,40.43259766123812,-6.7627050074845165,10.399092017930034,39.88817329087421,9.325903699367615,13.42175557887033,58.31141591028806,35.93763944731593,0.4998367313205847,26.344296566918437,20.600263530767627,-21.76001927348074,4.46519121249203,39.787915646200155,8.261402081636462,6.773421380092687,45.5417411071343,21.37232588151842,-8.593052118731638,26.91079998427281,28.574736616907714,-13.054423512381463,6.659704112281695,32.192088878115584,-6.073248591779706,-7.409003478310375,37.93964987024137,22.472342418453366,-2.728969897690754,30.124990746900746,23.320620254532457,-26.82345824715593,-9.761801816935815,20.74696927355054,-7.7491364100020625,-1.0638976902799406,44.0087140571011,20.68688555913252,-12.518991929800354,17.917617539794733,14.912067998830778,-28.593755549182745,-7.739878494445394,20.30478019956753,-15.221353493766394,-15.788210635258555,26.69049441734665,8.568813195369401,-14.175727472830822,25.686636168050306,26.574984772588998,-19.82589190410718,-6.75131411038921,13.511598482775364,-24.826780769125435,-22.747617585474668,23.252642763948373,5.354592225814542,-21.24978336650705,11.884092476918735,7.257304619465707,-38.00302172582895,-16.702217181936376,13.248720957683705,-19.50732893411842,-17.087804562912417,25.98006957162353,4.811515644477545,-22.434648265353125,12.75767950395375,9.554517044861926,-37.56374795548116,-20.510938543388733,6.541039632266193,-25.4456876623768,-20.525412033979762,23.787080948945388,0.9887479844368308,-31.269785326683895,-1.3446416131052779,-4.11040127131628,-43.889026017627316,-18.13398230697156,13.63229500864454,-19.00049093251824,-19.604622596127395,17.405398279675595,-7.57066318418827,-33.22339283817505,7.1494734254275265,11.044645557964797,-29.568475222475655,-11.44415164897404,10.104633628568457,-28.55099966226318,-25.94376625366708,20.763579899970168,3.4179680142084763,-21.73973542732162,12.85806783574387,8.511540600778588,-37.029613458178886,-17.109086793077005,10.65065960062207,-21.82249378560325,-16.102970986713707,31.245471330722047,14.420537991761645,-11.676095670678478,18.69873862684489,9.291865502860233,-39.52668494759606,-20.411305283050076,9.290580739142946,-20.695755635856784,-16.35834250870474,24.92000514406203,2.2101077733178425,-24.300156749612253,11.695075039379404,10.263104497791376,-32.85203323649663,-13.320983122876045,12.120818416400528,-22.120980192667297,-18.015650669328004,24.784414917909274,1.1048441539253915,-28.614617372074555,3.6794708243759224,0.015421179059390333,-40.54619163041012,-14.5111247006931,16.21987901707759,-16.32439162375134,-13.429205773457815,26.4552390782223,0.8527281037004499,-27.500484498761647,8.273359312488743,7.628643956835388,-31.74053533712268,-6.752157750000283,21.76521872676333,-11.82381660092284,-7.4108650031325105,36.35284361439363,14.661805299308483,-13.70545656168013,17.04193449619636,8.699901130715961,-38.653785171010895,-19.08941429361441,8.229260295930981,-24.46105062887637,-19.399245367120386,24.31800702845969,2.4022911222999355,-24.376839228381673,11.341148269572052,10.561498950133451,-28.934494128431226,-4.473918855122072,22.972419155605003,-12.02065842568826,-7.766065262460309,37.89647414890189,18.79641919012564,-7.677663536624678,22.89351505538597,12.924931934738616,-34.11663550504863,-13.111250857658518,13.061566053141892,-22.263900227959443,-18.71308899145566,25.39495734132568,6.261201674147475,-17.73325129486643,16.135182819805912,8.689918534191898,-36.56573348441781,-11.96892141650423,21.313069670643603,-5.822570278723287,3.2429818031303164,47.443577716545036,22.86373600330171,-7.873663705372366,22.699193816084353,15.49801638508983,-30.101955988315435,-9.798238753432216,16.6594020868765,-15.031680287523272,-5.505161759990694,42.273256912685376,21.239251975319707,-8.156690521970809,20.56267558096282,11.09420599020624,-33.494362633835415,-10.35060907129453,17.59576917239746,-14.554905400553523,-7.313146822528356,37.532168935461144,15.435477327583824,-11.733947530531676,21.907184553342095,17.829208273424605,-22.85207846041505,1.470325032406702,25.837590115922094,-14.37793436113898,-15.39756917842487,24.60132976048976,1.9516157175307676,-22.877941999809586,12.50691736547546,8.3263526328223,-31.894217057571474,-5.176164757172222,23.83918100901852,-9.38540982975417,-4.174607881287551,38.91516952400843,18.254065914452042,-5.480975848902822,27.331941003947822,16.907646803970167,-30.867318043806584,-10.865399413272149,14.041193643292285,-20.240487120517166,-14.414377050640944,28.564371028833285,6.272665854066901,-17.884590197878694,17.903880044754025,11.875366821983793,-33.142950120123324,-12.893502540227203,10.945465135394679,-23.919741583849465,-17.009411269145843,28.60375479841094,8.521139166743895,-15.668639616555964,18.430570625061897,10.934185703583578,-33.70971553189982,-11.411236266699458,14.710004411292399,-17.7628959124578,-8.996120517789073,35.989785568052184,13.720222152547173,-12.26916868327465,19.97240568443449,11.134904565724755,-33.02297096797277,-9.592157711106914,17.049868485722676,-15.656628922220879,-8.442634711894893,34.320299570022925,11.196657873047688,-13.65003309710097,20.668884441070542,12.806407393721948,-33.05680577700513,-12.859723939167996,11.25901724614303,-21.616218719197864,-11.383549973840905,35.03898914169879,12.93568544017638,-12.20402315889114,22.926121586141246,17.04759270798794,-25.920882676856557,-3.668236302079837,18.883594069260386,-18.86520167179423,-14.303961514499282,27.64385708076197,3.167663396626791,-23.61034271599878,8.541357836364678,-0.5764623904144042,-44.50758298863684,-20.36540625904504,7.252193406640135,-22.835911017505797,-12.2265162244777,31.371603855776442,6.249070237735044,-21.172125578186364,12.272913250707724,8.48541901012711,-27.907774381313956,1.2306448876217182,28.412793684334645,-5.538053331996384,4.649348537689145,56.568636390162766,47.438940032897506,37.69550608960809,82.80890789989076,82.90840532645353,49.18440737258034,84.10440328780953,116.50831854484865,78.90700186222803,68.28325344177779,82.51435376837279,30.93738444072885,-12.09051931810239,13.456787885040244,0.8603507425014119,-48.97519303301955,-36.41803258219008,-25.196463862015555,-71.25223271105244,-71.3680928574345,-32.792242899710935,-58.83422271015792,-84.85195680819113,-51.2253892906725,-58.59976387842554,-100.71204285041411,-76.80041372203165,-52.598773963695805,-86.68746043795304,-76.69915382795594,-28.865051356471625,-45.89896140115461,-64.96783979201135,-29.25598501890938,-39.007603717837796,-84.04517870679483,-60.103546364354976,-31.773150606222224,-59.5891837896304,-46.357414806917106,-1.8021774542115416,-25.92590745818898,-49.934596021877425,-12.997842252093985,-15.463732811756337,-51.39893332539405,-22.483903088524748,4.344681654417898,-28.044080776227712,-18.007293362271547,26.361304587308716,4.359548156159631,-18.213494409529726,16.549888975481274,9.422054726612348,-30.804821861666053,-4.4644966279602105,21.833573752811546,-10.206226450724415,-1.060381025426052,40.24779491706939,14.13737229860741,-10.811709280032114,24.520843565819796,19.285600003439768,-19.05576725089055,7.417655413425653,29.754735168779245,-8.268450554157504,-2.078541512375425,40.98591642460321,19.518904395296936,-0.9518913187205769,35.42901243589513,27.04740181921126,-15.486617408017048,9.839084104596257,35.366985478251344,2.3609151368307764,11.416936436784187,53.25737848709438,27.584466650197225,2.6782855078230163,37.0909741948674,29.90895161789137,-10.625912734224002,14.394718767976665,36.81638692730463,0.07454039549768865,7.244511518821326,49.9214482531131,26.757317499734455,3.9281734981299286,38.81861186038251,31.951177142051748,-6.737643183236106,20.140676896273014,41.98876955829897,2.094077529413429,4.117522597922702,41.87554888974407,18.69489280983099,1.21383376167504,41.550122502470806,36.46989336813209,-4.813938961993939,16.076595596751453,33.033713977426856,-6.321549325050807,0.6176214317139337,42.871386972413376,19.39060144981174,-3.332371685497286,30.95678731073214,23.032230226047254,-15.832957488664688,12.222909506656915,36.832866969288986,1.2789706508959036,7.519311034815854,46.07877145694922,18.530865501716164,-5.688569572570042,30.304750029214475,25.52656568302737,-11.581653341864005,13.742637419807519,30.614569026508043,-13.511968144544703,-11.492629496489778,29.85899731055884,12.178587574777751,0.04468123208197161,42.12444091833932,34.279179299809385,-11.123563601587428,6.750348182919408,21.915652983007035,-18.50762411208588,-13.589421430885805,24.810701112350785,-0.8517381295213831,-20.863566085902214,18.05975062131021,11.874953899018792,-29.707622992479287,-8.06955222954337,10.170046907301572,-25.833648952750057,-13.68532349364563,31.346552559633352,7.764974013959547,-13.937841454570808,22.490197598098952,14.85525857288442,-26.576718269511073,-5.1224506672038945,9.109058692437584,-34.23434749881441,-27.75668049997589,17.394120459776076,-0.276374936453216,-15.444618383401975,21.948087865589265,10.049312573417561,-35.61072760719301,-14.19698430899523,6.291649591376727,-27.131987811734525,-14.862423497953381,28.240411616945963,4.196459792572979,-18.183883120749133,13.360105426430028,0.0061644490197636514,-42.464673625856136,-16.599654655097133,6.247943765644909,-28.66587522218109,-20.931641416107855,17.643184657534185,-7.51902285535118,-25.30461582383932,14.26719375324063,6.365202076694727,-35.82919680507195,-13.67150255602417,3.643249179478871,-34.180988894359906,-23.529525187967746,21.56528924040485,2.369580397777341,-12.931346439271207,24.783947637278544,13.04191089279245,-31.68349879947747,-9.320606856643844,10.832965975012883,-23.706205323536093,-13.603160532859151,24.758930495157664,-4.869997458987662,-28.664557852885864,7.497785842334558,1.899470495920914,-33.594652058066416,-6.037351550585191,11.17158414312046,-31.337519738671688,-26.862475858180193,12.018074591528132,-12.51866165540239,-30.370022769321995,8.748095449804538,2.4955629482960777,-34.29558823721895,-6.406333648386228,13.745548811545296,-23.404800457425793,-14.176813539707007,26.387065111025258,1.6685465627198361,-16.840785867316594,21.25463412147348,14.561583458303183,-21.978229920674067,4.342020870307003,19.2403913574778,-25.50569638644125,-23.479223539637594,12.977687866749145,-10.773828151247194,-24.376485974473738,17.586436503206993,8.92902187021912,-34.779413195765116,-15.018568474670435,-0.5317679674002709,-38.386747151596694,-25.68799077816048,19.48425554735821,-0.8175622741657698,-14.419953781021352,28.08622727272139,22.880282253253178,-14.524988344009442,11.52997237038518,28.183056680071573,-13.16885307740272,-8.137529385127522,28.274587011417598,1.8685651216400565,-14.16715660667628,26.56478428908499,17.22188857208861,-27.109847430026797,-8.663142732705476,4.0263571673437655,-34.072591472249336,-19.89503908776453,25.70442675760866,2.6845263450800534,-17.46133555341401,15.700222092648135,2.506652735862639,-37.48273307482316,-8.15288599851111,15.412602063552088,-18.579455279120808,-8.460801156013032,29.844998771565862,3.375528644916816,-12.957656742355644,28.09927565274045,20.537999920155194,-20.859350506089346,-0.7976943667502905,10.323793572307784,-31.801859488194836,-21.965107656655576,20.91496896659889,-1.564844153961861,-17.550951993981144,20.440544705185367,9.107336551439142,-32.79332314949593,-8.287406357248903,9.828673367268822,-26.633534512411714,-14.611391890669053,27.588447287365096,3.1017245408007366,-14.643157294168532,23.5970514770897,14.344135899477475,-25.934236232407507,-1.8717624551599847,14.508027390368031,-22.78325401130187,-10.193029184761748,32.82812272426865,9.135896035602666,-8.89750971172664,25.996434102140622,11.681440098906629,-31.638714814211852,-7.308026136435489,11.771918272061013,-21.567135869933068,-6.272707866141564,35.9667376958292,9.426155623235971,-10.241490425638396,25.55815626448461,13.948695381078368,-26.784668047749015,-2.319065494488772,13.513914005018137,-24.99658055449659,-13.871751981116534,27.01079554629154,1.3038933870489657,-17.019016666952417,19.46680497895099,8.736046695716762,-28.224277689480473,3.7854762680277823,28.104462114012314,-4.9313392295943,6.02888542032804,41.51165610026027,9.111921650956441,-13.324201121520737,22.14124976226655,11.631094213692466,-26.302265699101014,1.558800962708208,18.611298502897878,-22.290904992476342,-17.089051835403666,16.021941521864946,-14.376378920373863,-30.113298513967074,14.522958730440543,12.563416354530828,-19.91015382836848,8.256670282431319,22.360694360914913,-18.87402829201869,-8.345795910619609,33.854555958313,11.09891505762047,-5.460378656266498,27.605093059352093,10.063615844460468,-32.40775701874598,-4.179804257688346,16.97058074575359,-17.382081029424835,-4.811450338567395,34.88310565976815,8.670601320171995,-7.805648740718541,29.650547586996147,16.860792786661136,-23.072814291122416,6.38948320179254,28.675352475416073,-3.518041944735849,12.240779690896375,54.229109769468494,29.12419152996436,13.636912981471184,52.40951955344005,42.4524072864609,6.5117613768535865,38.611090431848496,62.18143054461171,31.187436116016087,46.661689768057066,85.02106648993696,52.427294322326084,25.378274002982465,49.21892625706577,22.815118460732187,-29.31766330562032,-12.286944909725888,-2.7688877406210395,-46.44954230851861,-40.08324342831395,-5.053096369884122,-34.64197800832801,-52.549242304365166,-16.031325902528707,-31.25649292166948,-75.84328794573744,-52.866258095525964,-36.313590865763885,-70.32687449156978,-52.785729107158375,-8.840212301859232,-34.340533890394724,-52.238834206663974,-15.799646785941587,-25.741124192046637,-59.60660345496127,-27.51968434234615,-9.38652423876524,-49.68461466925669,-42.29063498887331,-5.092815186167609,-28.43988739375677,-37.248404105757835,7.759779154643759,-0.19287216620300462,-38.58913520676388,-12.193992699298978,5.059761069958592,-29.255915759204218,-12.62546873901751,30.343471287297344,4.575718135125319,-13.910465948348886,19.883371065942242,4.891915749950783,-34.56433138675333,-5.949234780137619,12.62491611973818,-23.170824070721547,-10.867269029605733,27.025449158230742,0.8161495478439917,-11.276828869548963,30.611635039754766,20.014650899933716,-20.152551577689557,3.358457884185114,16.26224619554939,-20.363290794925398,-3.43660269984014,39.0492519082555,11.86666140538233,-5.962967841580865,31.0863478478528,20.180374558527433,-15.74712155739226,13.898526939678815,29.176036553086018,-12.176207093277757,-3.4644366712739707,33.53677439136979,7.034689124191948,-5.806438431290361,35.00982409597198,23.653421187832887,-16.234136820627498,7.990108057301953,20.966084065854858,-16.246089619376598,-0.4207930335587413,41.5486402470561,16.14357485057675,0.42363294463583023,36.597170195347545,22.91604074415894,-15.567259025231095,11.654362499932645,25.93143116386124,-13.430165670514,-1.731356031069394,37.075047837424805,11.555866735481436,-1.3927380637834612,37.791728281008666,25.122484429773465,-14.57449448648249,9.753688082263723,20.97305278637193,-19.520484655611366,-6.842480115284852,33.403396676217795,8.728424368481743,-4.332960928432125,32.99257696872794,17.42341678152452,-22.912546286001234,4.728137966544768,20.930706643532176,-15.932834261070706,-3.3107723897724046,31.23002563638098,-3.0191519190380944,-23.033556705099734,15.06668816789161,7.3965721454570765,-22.841820361320217,10.634653191775246,24.552378620473064,-20.953926525092545,-16.845045740401932,17.948656173475733,-4.119441209997703,-8.343077108349853,37.74537553705409,25.3293458907188,-20.19612526631857,-3.2523786813148483,4.124430230492807,-34.84412438614949,-18.238838770705218,24.061872683377636,-1.304899343061443,-16.484202829210904,18.441053020738124,2.4350652074815233,-35.12391110267396,-3.9157376516187874,13.93479855303751,-24.43013722445702,-16.31483039250126,15.49094911837409,-13.656335175867522,-23.490454652191982,19.87174624938153,7.235668037332436,-35.26395632963381,-13.848176314515909,-2.7446384189357698,-37.9579898527989,-17.879907834402506,26.218471441698064,2.1572724474638036,-11.135514819705273,24.445271082727253,5.9382919930871,-36.676159935675436,-10.490481409340507,6.077643261746621,-26.525605563962856,-7.694633139973401,31.482459512584338,0.4248588229542207,-18.268543288045187,16.83166888093284,3.4812871320131915,-31.490394590027982,-1.6834225023040688,10.050017420081172,-33.1298202416835,-22.970415869235865,15.715849123256492,-6.843002843879587,-13.132107253172613,30.591073065156557,17.7578334454724,-22.51286935579172,2.598752357092039,15.501565874241242,-21.543888700490577,-6.523957819814063,31.106179082341765,1.274466319845871,-15.775186840596636,19.046575256391225,3.0074126218122963,-36.09553983529329,-8.624667944333359,6.302879669639558,-28.604227068301658,-10.598077011922195,29.799168105578428,1.544549515630969,-14.431496985131211,21.4367651077143,7.273759851160543,-27.82165921215593,4.157443485299915,20.508516875600463,-16.642674780629868,-1.853926463781745,36.882555402972415,9.515906010492348,-4.077951709357879,32.808041346117314,16.737112427625807,-22.664600807211862,3.1987377738397704,13.500169141787813,-26.725504195569016,-11.698892694128496,29.779731136981127,7.605847061438162,0.2128525733827762,43.516303729910575,36.728397967184904,12.067886646644368,57.929795359204675,91.21102264242559,72.76114801822067,104.13589417575191,154.16737068498549,131.62263106273417,115.71168502156709,144.36883009564374,117.22589393908295,66.34426948196167,80.89437894579294,77.94188121419262,19.44977720477634,11.396460191861365,28.41183887453402,-16.1298399798056,-42.723910314118996,-17.90371887671663,-45.672068822549896,-95.02266808436048,-77.02997473527016,-72.16218447975305,-115.82948317721755,-104.863052099286,-69.66993510287566,-98.27455212268008,-109.72215683886333,-69.55648555838141,-81.99646346815162,-116.90648102474205,-87.74526614743444,-77.35630184771752,-119.27292083169873,-105.7547928011966,-65.0855209809421,-86.42885014493737,-91.05125462235817,-46.52898820728127,-58.644932598631776,-96.34575074412287,-68.60158396501299,-54.28899108045712,-87.50078112826243,-64.94060047719586,-20.03621538725299,-43.34653124253574,-52.514554608361784,-10.339548467667525,-19.824646585373607,-50.97818292773423,-17.237866439087664,-0.6399911039156974,-35.81297625370189,-19.594531295136406,16.470170804193053,-14.432323886734851,-28.48179481166202,11.477151164159608,2.3562158181518846,-28.09597430927548,4.400177260321243,18.310361443627464,-19.184664942135505,-3.4158890687272656,34.47139635563293,7.765708295518236,-0.6950833211121816,42.04920702433949,30.681440342321906,-3.7284950117354843,25.604718686450404,37.28049447810744,0.4017126101320905,20.242364973675038,61.64645033386694,34.20375826849756,21.179945658730087,57.92297283246707,41.66327670240371,5.113028546690847,33.781120519821926,43.46258153408346,1.7209846026987279,15.448387665001565,54.34842087637712,29.178236284619285,18.055946517534736,53.90656931907177,36.35645962213283,-0.4575524468978731,29.67862877548572,42.31647732663878,1.808230460372144,13.0751762418185,48.29413663643528,22.544347912956816,15.979055011234507,57.89066785653443,42.18399039975266,2.4671766415093668,27.808742724194666,36.32880778931131,-4.57356679668727,8.884591858794574,43.12728996607952,12.335475026728584,1.0720442338422465,42.32656693044012,31.531761694238398,-1.3275086931362132,26.20564968665984,32.05947557394721,-10.97838135010371,4.836546857340252,46.33871574421061,22.70251932100718,11.576474771641717,45.767838439736714,27.32938290660842,-6.826036118489569,27.117636164920118,40.19353604766189,-3.0567548534210474,4.3190410001184,34.72041629234454,4.845557212406167,-2.994156458456047,39.70761770188798,24.791943282835618,-15.620441557899134,7.886593725335635,16.314035805034983,-21.239763071171737,-2.0242094010843115,37.94450533635229,8.962053858704238,-5.862402655784452,29.24767420098381,12.386210784053054,-23.858611762796446,5.546983212019192,16.838029481496406,-21.063984642032594,-2.914635255958162,36.82380379979553,10.28166593916733,0.34925117032913455,39.19732925407335,23.10333252637141,-15.320392496189271,9.00304966321995,14.82239937495315,-26.440089622639455,-9.978547354107434,28.906848269356974,1.0187386057694425,-12.161420106880634,23.341913448043144,7.624241051605873,-24.79437234447322,7.8276656639392215,17.621115817024158,-25.735301130189974,-13.543347067962486,23.475193588821327,-0.24765267630865395,-5.265555205760417,34.50680083537873,15.218155876116406,-25.467275499377173,0.3070071401429111,9.755182842708138,-28.748530632558065,-12.754488595117094,23.335773036890327,-5.718292302733737,-18.024040057775448,16.2950408324814,-3.2516150388564498,-38.16222154064894,-2.8277245728401077,16.36410514018427,-15.478433849746583,1.8781573040006663,34.484845514713015,0.6097784314515664,-14.17971424937478,20.570806526370408,1.5180659988014114,-35.95000687551324,-6.871867444246908,4.059671428171558,-34.50875311073477,-19.108620969446573,16.015125272540814,-13.41925221295682,-23.477404089546337,15.301084727768238,-1.2507025844486819,-38.11601956985987,-11.161998051000161,-4.839943860930386,-47.615229023088894,-33.4232840734572,3.7683253231138067,-21.648677919289554,-27.990848979126948,12.911507169041359,-2.3180572153246857,-36.87788071704167,-5.148235288425099,8.018735691196303,-28.062820744939707,-9.07135187628834,31.143581883984684,9.384507331350775,10.740305462375797,63.77947331459037,61.19248589966324,35.602377882998205,72.22744892934924,88.18700832423562,52.29514644605698,64.25776580188648,85.4232737101113,32.95491793487916,-1.4619300180671093,20.31415774149337,-3.1047565789082388,-43.65069444016394,-25.947894732235778,-33.896018699784015,-88.62619469382054,-79.71122902549106,-42.0859325925179,-64.47333717879167,-69.23688460590934,-30.54231225865687,-49.75398335595158,-88.91952993916856,-64.7222225186141,-61.49005050681191,-105.10664176412902,-87.6565438753443,-44.20785101639191,-62.81622665067135,-63.46697043128358,-19.82104041416277,-36.118924860819426,-74.13535864560684,-46.62101332268688,-36.299788117338124,-71.01883389156339,-47.23122394500015,-3.6713724074500202,-27.29811504876626,-35.16015456581773,1.2941656991979613,-18.386260077045367,-54.421149019458795,-23.16985827136154,-10.154309311604669,-44.56716599658228,-25.770393190001297,8.158789061696229,-23.43213504882283,-32.05691682369172,11.309030766134882,2.1823323423252265,-25.060202146806976,9.18220368657185,18.019438631862304,-24.53132840922602,-11.591912938360776,21.94045580932903,-6.448834121577132,-11.340746936157094,33.92048504098795,22.369549497633262,-11.734016377271452,15.559985236310784,21.09548877499648,-21.650558235999732,-7.1967443060300305,28.773690854514047,1.563209305745481,-5.726013025511267,35.350065539009975,22.943726753090743,-6.876948016166947,26.4320075636727,35.951419483896075,-6.372276148452492,4.940945380677057,36.31863331513267,6.180221500492685,-2.0334510531131453,37.85088606955857,23.158057978837554,-8.677225925622732,23.400012609781427,31.47353974759011,-12.677454809071595,-2.115012157609719,30.958453287447913,5.038464590066843,2.5516766090846597,47.20246762360209,34.03150421862631,1.0746189866711013,31.571552290768604,39.601993438876846,-2.3309777055461964,10.662069665546012,44.43753145993703,18.374796700092002,15.49475401293327,58.61864792512024,42.07396855502902,3.317407241242938,26.973433550119488,31.107696481151578,-9.643301580379298,7.663583569358508,45.585274850705716,21.459894088925747,17.77247089051122,57.1386588758413,34.490378854144005,-9.743137225674582,12.202030317682539,19.0924406397423,-15.835298632024083,6.59949554969009,44.427603398998265,14.726697723069051,4.951328846196781,42.96927967597607,25.277841640235614,-10.251036864367675,19.643508120707622,30.83555176648027,-3.3192010139256958,17.820287799962195,53.06152990645673,19.23026034290143,3.6336107682091106,35.822017807538714,15.856240195110002,-16.76899714928446,17.72171665096641,29.892794069813398,-8.709010328845277,5.093458990983089,34.97559408623141,1.7688798274632092,-7.575166741833073,32.451784521750625,17.632954817730123,-15.198659832050609,14.347208548823188,20.482698623069574,-21.728168158252693,-6.962889865591588,28.456352364373185,1.9820962001740945,-3.274699962502338,37.046874313528136,19.81782769124137,-15.42801171167372,13.282378217724906,18.508089272678188,-25.585990761962705,-12.838305141552924,20.459802166817315,-7.370203974106261,-12.561373286082691,27.482997418910053,8.77714627417993,-28.12563766025214,0.23294257053412437,8.41906470556868,-29.836437449555447,-12.323993766474617,21.459275433961153,-10.019204562258032,-19.46595726233379,20.38958834901519,6.917172766559808,-22.90628715692266,8.791274922018086,13.978929761292427,-30.8804139014834,-18.78148980302062,13.741939770416433,-14.954908314559377,-21.25128797639587,17.682989844243906,-0.45207531827818137,-34.06508233568677,-2.0365371369021936,7.478548709100047,-31.899396786487042,-17.41246468667036,13.34811162198254,-17.073320654872532,-21.784077924906686,20.125380996384145,3.616082815099068,-30.129573989649852,0.6433547724699515,8.71275044471821,-31.98729213979249,-18.649844306963857,12.115605825925812,-16.598890101510413,-18.169166472930893,27.222968492404405,11.345991592982207,-26.638754156771725,-2.32199094871293,1.2188269046879472,-39.89934971609877,-23.062140161774686,12.36725083634952,-15.022158221824073,-21.256800063926214,16.455203596607454,-4.216794893989345,-41.672694535657676,-13.425631613438583,-5.774672629981643,-45.108188781739976,-29.62536615319701,2.3528374877566627,-28.136037764379765,-34.846564202443396,5.437474444824993,-10.211213760747336,-41.61828008337865,-9.338831935603556,-0.8440101217766616,-39.86306696278337,-22.97728882963188,10.414925655189247,-18.950832635915404,-24.34419051977255,17.696782322973466,4.456811264535482,-25.46550216620912,4.560252919364146,6.539528681262272,-39.9712364457079,-26.43237843469352,9.726842846716407,-13.968703678839923,-15.74197546620124,24.074295750193635,2.943119973694273,-34.08224026719193,-3.5398709133611064,6.106690778880695,-31.87251607163005,-14.982338425818511,18.047475639563384,-11.20803287020937,-15.355006298849233,27.493213084552032,11.512216720352358,-23.78647350160865,2.944735850167689,6.573726277783317,-34.93168925166596,-17.668579965042085,18.243948757505194,-8.166794081377086,-12.24987892426471,28.383461119918383,12.054466802811541,-19.234202690305533,14.113655097337347,22.980417229887557,-18.15510008458902,-5.870966194055271,22.422828513438258,-9.936944692516253,-14.84020636625959,28.935671575717404,14.822711544069467,-18.375568160921528,9.558580620085413,12.92859403931783,-29.906734064460295,-14.20755816828479,21.032255503267923,-3.7582711686721524,-3.4464543711428623,41.573342426915175,24.4706898331262,-15.040647231265586,6.830372195772599,9.013346857137524,-29.109114816348907,-7.0370752664667435,29.913838195692918,-0.8291079276691633,-10.780370736708681,27.387609352974685,13.173089204541668,-14.52155164908171,19.87427508505309,26.788858940916533,-15.966773766461172,-2.5435377939533694,28.996618587894556,-0.26545612493957904,-4.807713348964757,36.0458820392563,18.687134581532327,-14.922008391197458,15.256859313371967,21.282270124522718,-20.137222055804177,-5.6108330114048215,25.13285849011495,-5.315435680901928,-8.58681647735419,36.180624370051504,22.54179132926025,-11.013066721158092,14.835801188695388,15.553148024950026,-27.984212753930073,-11.11296797195582,24.70230392870743,-1.2565267718631432,-4.012466603631768,36.73763939471961,18.070656379358084,-17.911254457105773,8.749071170825937,12.645170017364409,-27.364655144919855,-9.623843665679997,23.48425341337003,-6.878299124270576,-13.161433963228955,26.54239468190168,8.860082380467311,-25.41426091560223,3.1568932896704887,9.245223917611224,-27.784742437247793,-6.015071018295107,30.331717629923332,-0.5382414568681746,-10.928852786297686,24.633537345736723,6.174276659103626,-24.705713419115135,8.142134247399465,14.314156439455331,-28.00244861475309,-12.85667923922461,21.459112987997027,-4.00288218139416,-5.14114871449586,36.924092443816576,17.855143791501824,-20.68136581696564,3.0186625204590882,4.961350813325404,-35.728332349738416,-15.803590769759092,23.16267044914907,-1.3366590262808558,-6.37841340515781,29.56166317397456,6.337165655881972,-31.579606074911084,-2.8437873871073265,5.98925281575179,-29.694662531734835,-10.96167667666166,20.49188334248297,-11.578157548728072,-18.325960840029076,22.669189910443535,8.82251435883534,-20.495424504112002,10.736639914392068,15.88334074492525,-24.26956575629126,-4.992774917836217,33.490270513813925,11.454138718106975,13.887114475936674,63.13239438874129,58.554945403504945,40.723981585386234,85.67137383863297,104.03651781862486,72.49908382103786,93.64618193199688,125.20776679300846,84.61986473969671,56.7767879236268,67.37903863566166,21.507574493688978,-33.296312892332,-17.796441247839656,-23.247399157419924,-73.98042307375036,-65.64835311904335,-37.927210470883466,-70.20796900694688,-77.8894256516957,-42.28702314578747,-65.59228139058601,-103.01834558801528,-75.15920962651633,-69.60794891435233,-106.74857815212124,-83.64987182483185,-43.531417088153376,-66.84379374597869,-68.10202812923407,-26.38648017769352,-42.568682646184655,-73.01233895390992,-38.98293308572386,-28.768909682981764,-65.3178374393063,-46.280880714667575,-11.88220335960918,-39.21204795333604,-40.23717221655578,6.330926009179606,-4.852107528113606,-36.26340714819121,-10.425839032979322,-10.571462879230923,-52.57794757225672,-31.070632480606115,11.275004211635292,-7.554342196177966,-4.9396925851756945,37.571189395558605,17.74196369836614,-20.727326948120663,3.525741990976403,7.272151079785996,-28.47970918456538,-2.997095972807694,37.58991740985116,11.984308195157212,7.289911677763769,46.057215336594524,27.61901429665469,-4.782994683461784,27.042844261373766,34.332118356997235,-5.276059413391337,10.841762384982133,41.009105686143144,7.785213644853574,0.8872433673918212,43.13305587221706,30.511471826772873,1.3193166953544324,31.18526424052063,32.97531270708472,-11.458448688149563,4.129888245101551,39.489253391295236,15.480665236143349,15.655406609435405,56.73289616773511,36.55911208824578,-0.12074694385191265,25.667943282677705,28.215555529745803,-11.95993839784489,5.824015477234953,38.905012723093236,11.2882929612141,9.90110144791147,52.74531501757228,35.31641195676452,-1.4554668912072088,21.729447787945055,21.5593075297509,-19.717071100125903,0.685905084605551,38.19983346974506,10.989813451078323,5.03658190098155,42.74635984810352,23.722831891681956,-8.599204030147288,23.361672993289496,29.892726581966237,-11.247181298159777,3.563437315934852,34.1660734076341,3.5612133600471267,-1.7233318294905628,37.829990099171106,21.415230123453753,-6.932562536857511,28.223909903711068,35.19209128484803,-8.986835670962861,-0.6244564475213306,23.562415339648723,-8.886482513395027,-11.253793274345497,31.621670825640717,13.628902557228267,-21.685228964175,7.383330567959142,15.747902952310948,-18.11477199442625,4.947504963468274,39.734622039067034,7.637701860147491,-2.9232170618987876,31.58375221525533,13.34618243003935,-13.396160619002234,25.826976824997384,38.13286552890904,-0.5367079563871044,12.91609027321259,41.141322292392985,11.587878134494911,11.436985895006504,55.45865852837686,37.59122127102892,2.0457531626098575,29.700736279442964,34.255501486211344,-6.314815014392835,7.252209990029632,32.45271435200024,-4.839777473217826,-14.470335639145478,24.353914152510903,7.6863338171913025,-25.620158473110934,0.7239948196757133,1.5901767243721556,-41.888401411191204,-27.11408076923731,5.194105385034513,-21.778381060617058,-22.572669402525214,21.106030729818713,6.3757576230853825,-24.422770957492958,6.8784366232212655,13.926701838419508,-23.590028315467045,-4.415535735386097,28.79380116028712,-0.738879120965585,-5.6024528026604115,32.62400425734374,9.284629205993124,-34.03374221374619,-17.420462951048957,-23.285164410933184,-69.40173391351094,-56.21395850090936,-28.63395359115221,-63.51908721017875,-72.22643438919951,-32.88339383505914,-47.940358246153934,-79.64991975753848,-53.14926391069054,-52.2899869690993,-93.62727066965869,-74.33529518569543,-37.500022308537844,-62.05132112605799,-62.15702308805267,-18.445404044746276,-33.94369331162879,-66.92777687125535,-38.510569502123154,-32.14360561021518,-65.5914896987036,-38.86359019910935,0.6833231253288545,-27.72357688407984,-35.13591641922915,3.3970151655274563,-11.558081869650257,-38.5418459514206,-2.72389382842076,6.565264720819163,-31.299217080626477,-13.14937644873429,19.588190573148832,-11.514886441399039,-19.869014520197396,18.0055640453164,3.429277252576936,-23.083795387432815,12.024023861227864,19.189636013227485,-23.2612038882707,-10.89748521880083,19.766359206456254,-6.700184980220774,-6.6160269223397306,36.10673152647212,18.20018159971243,-16.377727064138604,12.495604759977613,19.77358318755941,-15.23432573716501,7.3368945741579505,44.13155465847707,16.90004819644999,11.209291901884045,47.14704590129192,24.489436445446735,-12.275588516220482,16.950013940662792,26.72571404628142,-6.212991117040206,14.972756517203775,46.95095518702177,14.50796155794406,6.67360501426985,45.83064523981646,30.504842030826858,-0.30367746213228486,28.48145726280798,30.93826162747147,-11.956554353052827,2.7997306145154024,34.493408041574114,5.836248526859521,2.5970123991807914,43.58842559026253,25.527211454177344,-9.836891753247807,16.732625951643335,21.39790132400015,-15.274056492711622,6.42541699719299,41.792419919217394,12.184829590068475,4.635149327880336,41.50937055931059,24.267307627720797,-4.501005999331618,29.380689531816593,36.00076258730846,-6.68966887060882,4.013150503470051,31.43174385117143,2.70317941961563,2.2560172663520826,44.35580992944206,23.412213956430204,-17.286746444531587,5.788857338223838,11.064928044535794,-23.505669153595946,-1.7660301419428581,31.664430033636854,1.283315709172431,-3.65462577925575,37.48010272217562,21.215319870314776,-12.260179399424603,14.746616709964155,17.907287342607724,-21.628943283995206,-3.622274979744345,27.99425320427425,-2.7649800249411207,-6.761416583544934,35.59173768267177,20.168397653869388,-12.486399121362576,14.67066996152542,16.05048742391348,-26.774905124978197,-10.076700167044732,24.9673961219853,-1.1483906779427677,-4.373399715262502,34.87856411004059,14.038456105607002,-24.703189610109206,0.27950399771783907,5.801276845040352,-30.714509267537814,-10.769696932777647,22.93014383428367,-7.576839948524704,-15.142809193519806,22.543736604570356,4.204292054461817,-28.005897728471766,4.242786807166365,13.204700136371006,-24.095326727005443,-8.135913027058157,18.619220882078338,-17.386882006871677,-23.47716716408319,22.029582674353705,12.479101938733628,-16.891789759314207,8.45484761822812,5.3418768111040364,-40.93644310084867,-24.983237057859306,11.134577002018453,-14.649621367801807,-19.16094433245429,19.930790733087008,2.940042649486484,-29.227463728195776,0.07104521698220623,4.479169848989637,-36.4889097351597,-19.52696642147172,16.049668653928048,-8.922313814912302,-12.20557423793084,26.105430772552708,6.7410598574307325,-26.58569716732322,5.107498772711068,14.791635456154152,-22.456316017871714,-8.29380222086164,17.325009006022285,-18.881512128796526,-26.735864700496936,15.253395875475764,2.191893856420476,-28.372747464750496,0.02747155687865188,2.808217146703556,-38.50658927094733,-20.424123900042865,15.907736627523473,-9.989734232852214,-14.770966630166678,23.05501053438388,3.5348851673617947,-31.51559271210677,-3.365411423685817,2.9894592651519667,-34.55987291735397,-15.70505825786393,19.248652788573747,-7.5292551889275146,-12.805710523471936,22.96082258997133,1.5308220215687207,-31.060370347982087,3.3555166962645018,15.335906571326436,-20.041570090642562,-5.068186505606027,18.936533863806293,-18.682082105976082,-24.353045399319804,22.906274848794094,16.302554417512276,-8.589160589445658,21.626167278466802,20.769454092628305,-27.271490897771862,-15.501359058815101,16.661487369504087,-10.27000914297666,-12.799533777069303,28.913317565568125,13.622560626423674,-16.77466755579316,15.347236354169455,22.579161081602415,-17.703002247811717,-3.8416166768040014,24.907651629122675,-6.92302200508707,-12.106110061152114,29.04285424764624,12.397697025158331,-21.532742361977938,6.152687184904611,10.74742199503613,-28.232034915842426,-9.830289449923246,24.055952505308007,-4.3605671908232395,-9.415241923224723,29.306652205176285,10.540607172762384,-23.867434891848912,3.909896839246006,7.594127329512358,-34.08490143071615,-19.144030767859068,12.761108621259996,-14.88254119298433,-15.840435143610367,29.91070493838257,17.666965784828612,-13.593974044737996,15.635020985976729,20.980610926325348,-19.428935839114658,-3.5498705130230874,28.765392900754826,-0.9844321972444305,-6.244189767479436,37.28203709488476,30.065100489046834,12.686089098580927,61.01748925754147,87.07070416212365,67.47152463273744,101.23132164087366,145.61260769983153,121.40861422459913,113.37840779441026,143.4713754044384,112.63590820556685,62.9947452405886,71.40308675072232,52.87838808182176,-10.279337718597702,-12.7983823341148,6.3592512552067015,-34.86186692292735,-57.37973515102425,-37.9623269826857,-69.36349023374126,-106.19296332084754,-73.62510304787732,-65.80418544544145,-111.7401377945447,-107.80565277931257,-84.25799165104053,-112.40572347919425,-109.079405072068,-60.0393369642417,-72.95567985872556,-107.74581447123677,-81.70862041107807,-76.02351176293666,-110.51445333504853,-84.12208644004077,-40.79442218133174,-62.767338727168834,-65.29767972102243,-24.48434018047656,-39.37592679423577,-68.84295723881216,-36.19846504577785,-28.937945473030908,-69.24983411512058,-53.11948466231087,-17.074014543693906,-38.83013315713909,-36.3969214459444,8.721686539064383,-6.416282492675924,-40.74291635979581,-12.680291140581254,-4.4356915756250945,-37.566686699295374,-12.07806140712853,29.222726683195503,4.384443013599292,-3.4430629504897885,29.747801434128206,7.795887209593532,-25.281222322570592,8.108890387942875,19.203584073063805,-16.775343366294635,1.435514939570627,35.27147828508796,7.629752093810094,2.98570640765106,41.596073366742125,23.11005999469782,-9.168829836086264,23.560868264193232,33.62796481055907,-2.8846236742027394,15.332352174277244,48.5158022267868,18.609067069907734,11.472249784710018,50.10474137711816,33.86474491051121,2.696048058555782,34.20921452731788,42.0456464742812,3.112311397980161,19.83766071564159,53.56184433048039,24.902068272785627,17.527290728073233,53.25152645173799,30.73515516571479,-8.32333718879557,18.047469045436948,26.20263886883088,-8.236255345196158,12.2716834435329,44.80310822687208,12.500738887978823,6.5521181886004785,52.878066938142034,46.11008734731945,17.534663402682217,41.07973421944655,36.36514684116756,-10.087009129739638,8.04518410691861,48.54808950719059,24.790687060759716,15.909540977109849,46.300982844268496,20.02398268907108,-19.17152247940669,9.572325216430361,20.228191812977386,-14.272229497986753,4.499158629461023,37.77042309901628,8.596699581567968,3.431378098174401,45.87046989551522,33.05513921513367,1.9343795014607288,30.538086610623722,34.1685912230094,-9.98896685402693,1.455111018030392,32.253915717148345,4.924524221254874,3.4171650763669525,47.49256664003258,32.49720598399078,-2.514383099527519,22.76723067017853,24.972950071943146,-17.82241074673356,-3.554210864340373,29.677945655266953,2.8187598986776976,-1.935331320274376,37.824715881223895,22.307349127772703,-9.425529104735991,22.59025012614503,36.724665059443225,8.82343686368857,37.46854078952243,83.54580975448778,66.00082228008426,64.91831631319423,102.54539643046624,79.02139599759843,33.37503969085004,46.124442358332736,37.527486327540984,-12.369457500193043,-3.732397521849851,19.94844066641462,-23.372398564354757,-46.82693177283743,-20.586512752236047,-40.8529637730946,-70.61619620675833,-38.968098860673024,-36.718796397934916,-86.43591265273677,-80.45471142132384,-50.77905625897591,-75.79944137928267,-75.58492770069977,-28.89148236550668,-37.76991911624687,-66.46838961248892,-37.3088425049547,-33.53972503466061,-77.40260665664577,-63.317772885432994,-24.804426933109692,-43.78988692692962,-43.51621922243949,-2.6963343389232186,-20.093052570760772,-54.133742184265635,-22.612775102555215,-10.027084216294408,-44.89415358653882,-27.994611486222794,5.352789475287581,-22.38457087325902,-28.534844417680766,9.566873078971897,-7.610958422771175,-38.37185181668604,-2.50770649946017,13.07095043139416,-20.37413673371636,-5.24340023045176,22.063634553078327,-11.884336299850368,-19.5228968856791,22.013209053741758,8.636044695941532,-23.404945848068916,5.0827615426791155,10.421035772789232,-31.198984811171343,-16.777530140814534,17.601614123341292,-8.394695844850602,-12.494753944059628,29.364934569082074,15.053913840880995,-18.469881120075904,9.878179367609457,17.35132395806973,-21.343609301567845,-4.671418861979198,31.05390124066505,5.7314126714045095,1.1967743599160419,41.078849206783445,24.36531333298217,-11.12443025004344,15.41953886853089,21.8665179149039,-17.24712900505299,-2.675482448379414,27.81573246942703,-4.7649196155951685,-15.102997865183344,24.11763110480556,11.859242837044967,-17.61301304916678,13.402846938852385,21.32162732368903,-19.112034380494045,-5.66882860766999,26.64756002244542,-2.274560550566889,-9.492007362709664,31.082404114964604,17.353230754157877,-15.980731784998092,11.530876007187125,18.852166841696995,-18.66594939601764,-0.37800314361919973,36.116791318476004,8.749023771851544,-0.6174482601400391,35.0880872692925,17.024305944947713,-18.528341476393635,6.948855647925722,11.065284527781962,-29.541177351836662,-13.346993024338914,21.70389423118268,-6.695046942748064,-16.515992443881505,20.32559962773343,5.5416527896569665,-25.029373594833174,6.40749215224389,13.790289922593171,-30.071045433585752,-20.11467867345658,12.18833629125716,-13.77653005564418,-17.469377788079026,25.7206649077314,13.162011979338274,-20.283090290280107,6.14560523770357,11.299501372661776,-29.180913003708834,-13.614927800320517,21.490410363552687,-5.11026883660325,-11.79985801252332,26.492965794638984,8.424173308430158,-29.66904343822556,-5.660457464143835,0.27211141540158934,-36.61005960008278,-15.610134499412203,24.102993196309228,-2.4142551272406685,-12.426104584354636,24.72598040284491,10.186432065501402,-22.348882511760763,5.300884933268868,10.334898769369648,-32.262163112036404,-17.84758810949734,21.022190259141972,0.20810404626199386,-4.048955142963598,34.430522413575794,17.768202766812713,-16.72246200023121,12.240295465705174,20.494671098081554,-21.23273703034921,-10.895260510302842,20.13385816886723,-6.0496730966811025,-8.56397181235614,34.50792335970024,19.7071716007424,-16.034613369790936,10.229402271431663,18.089594589420066,-18.385683767388116,0.11212893850786898,35.98924907166495,6.915181046957176,-5.249410821247023,28.849441056370132,11.708929486192043,-20.743837066715223,11.11859541796434,21.952776217662922,-19.234431035396703,-9.970723710527896,20.74512414820665,-5.672701131591712,-9.420401116842562,33.0851054954068,17.546414789158835,-21.416862107143984,1.34478835116213,8.514349607420709,-25.920361568980603,-3.7535174136580753,35.94256998396468,9.27778180232727,-2.740830565550107,28.890974082753786,8.158825974093888,-26.649558826106038,4.514538793385576,16.762730754923144,-20.28790507604252,-7.169425561602525,23.29302706300011,-7.118497685732109,-15.54311260366238,24.536168773017245,11.043467262345283,-21.456559020165926,8.580153342769918,18.39992279398617,-21.517217108588945,-10.23993656889687,20.975326332642556,-6.084410334790817,-9.920206402419792,33.71833665440631,19.230901937148083,-20.857681371205885,-0.9636812436208064,4.119063088310424,-31.157705549173887,-9.289257932279499,30.661881020360635,3.2185385311006165,-10.95029533548348,20.593818170680365,2.2382004785558944,-31.49280406320406,-1.4748989133742576,8.792646051403496,-31.139434574045556,-20.885960388572023,8.666747159773756,-21.4423759853915,-28.619026967217664,15.905870257161176,8.323765702151714,-21.921368502544208,6.02768475566306,12.686140278210573,-27.80629154816584,-11.201747758398465,28.812455563382034,4.3964727635131595,-7.567207673624571,24.1991011770587,2.9281566038725444,-35.29147109361409,-6.283158969000549,7.159874871026803,-28.57591345923636,-13.779535820624984,19.820084837609794,-9.340925993698864,-19.72135130409856,18.740154268526997,6.085671632260997,-23.748626303268434,11.746223281768017,31.904964284595742,7.317936690384107,37.94442099071856,90.23266666183638,79.7279231866458,82.90737116130957,127.13222757409447,112.33992827244538,72.77377971029087,93.43108437108188,93.96247993712242,40.6098499239226,32.108705492035305,39.781402122858275,-12.819026391155486,-40.432263606628226,-12.29748865392574,-33.6797041376571,-76.81566811883916,-57.911812052757085,-54.403687549083386,-96.4617756932534,-85.08403288923338,-53.78874459048636,-84.81161059352773,-95.26971922817854,-53.52158641961708,-62.44209411698232,-93.46931654585417,-65.19017155603085,-56.427292921685876,-95.06859524409599,-78.87729579070485,-39.87381213857411,-61.84636682482829,-65.11366387604278,-19.41056009383817,-27.160934876744427,-59.23430168489851,-32.916244518987796,-25.534089839678796,-64.45177137120366,-46.65392284710294,-4.779004856505946,-27.43839673866807,-38.96715269940894,-4.883904016298578,-18.229206664770203,-45.787628936406165,-8.934377555031533,8.016899595320805,-28.046711375579783,-14.890749763199521,20.859280385591045,-2.492235692992491,-8.974369537470139,29.989510692822357,16.889259348061344,-13.766491537996433,19.244148800188277,32.20071152821114,-7.819055422747514,1.2826800297315284,32.889288812638775,6.938834277336957,1.2633456056626235,43.00709294211107,29.072887257337193,-8.559874877147635,16.92791380398002,28.093292619163687,-7.082269213846885,10.726105828674143,49.20309309085796,22.688923133818207,9.615770530151721,43.72042298043749,27.9873885306152,-4.649916356027811,29.556891674293098,48.23302313230681,14.12359269981454,25.1980158978544,54.12449134008604,23.037151067143192,14.142565646324464,57.378567436917436,47.81450744156386,11.731081267305663,32.24611785137046,34.98227436562987,-6.733759567136836,8.554369037550874,47.767136283241065,23.237177900265984,11.453246739353352,45.072231709271534,26.872450938134197,-9.183054882851835,22.322461289628194,40.087025143684876,7.294252889470954,21.47487457744611,53.235841091349585,21.704985907729874,8.37483803863823,46.18900617028947,33.745879537765816,0.31631114643690417,30.997411044330367,48.08216519707079,17.40536699732052,36.60404092709135,75.52249186223796,51.30339101432844,42.06090718890208,78.65690382032561,59.9005046185779,16.014572362862225,33.82369142209767,38.31773045745658,-3.1795251627937553,6.483290390635281,36.202125885021694,2.643501946610666,-15.62970688704024,14.41138545472643,-5.269428953729729,-44.01309618990376,-18.144995257222476,-5.907326587356338,-41.53497141868906,-26.471281690132706,11.947365375090582,-8.909231251612082,-13.468467432182567,28.335100722412164,16.72363552616516,-15.14366892035688,22.010826592490815,49.6604022569876,25.62830042218408,39.85617411907477,60.89493302085591,10.641979143685543,-22.509344423696252,1.9092042670415204,-18.247722069076715,-61.669097197683485,-46.55424607626529,-46.5282479293264,-91.28723498956347,-79.84224708171183,-42.16419591710312,-67.19582934976424,-79.94577788429314,-44.08528886207364,-57.05919579269981,-91.21193242557234,-62.62712792114714,-48.203918745730874,-81.69078128025934,-63.81135682743003,-24.448384631588432,-50.45241944121291,-63.593450913025094,-25.73733246863741,-34.75479647130715,-64.52413532230089,-32.91152112985414,-18.018456348659484,-52.772784821594,-34.998593969766546,7.937285721616352,-12.243809613350608,-22.664427726812946,11.35828853451954,-6.204166100331433,-45.076583461322514,-18.776458079045526,-2.7150389261155796,-32.64183727669237,-12.674061680864412,27.046282124708227,0.8307404242807657,-14.201686377659751,19.725736292480164,7.725936931275921,-21.96858261454554,12.355355360655846,30.347895397721427,-5.79304022184224,3.2101865193963164,32.96953156423554,1.4236357813136244,-12.758447546532942,25.340216179283686,14.358613792503629,-18.835168347062783,10.678170786964778,23.70725060799037,-15.984766600870513,-6.495502586609419,27.910429464616584,3.3493908355510538,-4.866781671145726,35.449878848402314,23.453130741200795,-12.752244685519969,13.837827024002783,26.97957252218982,-11.27261604753097,-2.772752506963876,29.281255081982025,3.2025445988541907,-5.757670862693722,34.75004292580682,22.951890608163183,-15.326647066014914,7.665834378888352,19.276705413029074,-15.560366324192403,1.1224933313077887,41.26493730993463,18.35636751651062,8.601253932889847,47.54670386199679,35.08714088637208,-2.837889481763419,18.79503149770584,25.052811024172225,-16.287398816164533,-2.584402518162751,39.51956255682444,19.854630270025233,8.30238778574116,38.87627046905045,17.442494630357796,-22.65580224327314,6.655157381287211,26.487598695527947,-5.5995214646295075,5.016162029236217,34.57928655051267,3.9577964585633936,-7.56239331385879,34.41838189807275,25.994460595354465,-10.683049431309785,10.637600909069185,17.980785949274967,-22.081011088204974,-9.398657173584718,28.322585274790214,1.5820314754073763,-13.72754971952661,23.184094726903453,14.376419607777589,-17.283313771877147,11.619348849843718,24.494361424193386,-15.272624447581814,-5.881664237696016,29.957658494591193,4.484504347724522,-10.600494749727556,22.616354863067656,9.98066441457509,-21.60786919872873,10.76637090604294,28.58317071335516,-8.11096517240308,-1.7603562458771886,26.44204388804491,-3.5981753914361008,-15.086879498642723,27.139383274755637,20.606343324109424,-14.22621157869978,6.491529344215447,10.542002900705544,-33.348514494872695,-21.02454395286717,23.21720346812729,7.795288455584075,0.5240164316850213,35.51942519809556,15.065805535749451,-31.17426415861965,-10.450442272414382,4.817057472772407,-25.52496211861613,-6.303907654787922,34.2964080257657,7.385613610367429,-11.31946833210729,20.189320410061747,6.743435439307369,-26.925564103266804,3.410283053474675,19.45075463033225,-20.43785073008702,-16.422095833057888,13.870745359991265,-10.977581696467958,-17.39091691702502,28.229063735520537,20.9146712558035,-20.204377369219834,-5.396710039864123,-0.020808980742643146,-37.61433669314523,-20.780661462512136,22.151621113611302,-0.7452384570308048,-16.740693056002677,15.770185020611558,1.7003048378511316,-34.103275286250444,-5.809300181604325,11.214968731058597,-22.735577102206772,-10.680258942795286,22.96367692582735,-6.84004808137372,-23.617276426858,12.565952769869128,3.1592312185792792,-29.932686388321603,-1.3152550995277181,15.23518862759078,-19.79572718222427,-9.505071029750232,22.942663016348384,-7.777823662037122,-26.094596297338267,8.799816692666536,-1.56495821765475,-36.157300652090484,-9.099150013133213,6.513412444179832,-28.49821070795511,-16.35034837075204,20.088178105737633,-5.562861365538854,-19.94541836880128,15.769624699759332,3.433749299002491,-34.70455171884519,-11.64166822126181,1.4637218156621379,-33.14774056605312,-17.73148033766939,23.06184334798143,0.12852244348687591,-13.868233968654767,21.154025819237308,8.461387351470227,-28.91212179063628,-5.43239688702009,5.874564328344935,-31.46341667019655,-16.443063432593885,27.404013844750324,6.884786925112257,-10.123941319193031,17.73105175180388,-2.0475610608494392,-42.62653010432826,-15.355216825724144,3.4787993816402887,-31.004647262581237,-20.280414558730634,17.341017644741797,-5.358489585578596,-17.983964967072684,18.487666505680316,6.016535386050382,-32.633091528068455,-8.1000157898925,7.670344895374162,-27.318955354605365,-16.480400390766228,19.05219009312209,-6.949733882604358,-21.11263855372129,16.706379211422707,6.497700814961593,-31.93897565746815,-9.996492415803674,2.8628762954025597,-31.39465505022443,-14.870614867123326,27.703789704578895,5.203876154112628,-10.278069712716901,24.563151782768614,13.91696276021382,-21.52264276522934,4.536236493175629,19.63646701108748,-16.438268844063344,-4.366455259434469,35.14444380733535,12.35724784958992,-2.121057222116094,32.56248193312868,18.294057741811567,-23.450287214129474,-3.1682345747376672,8.838077428366068,-27.742457257339183,-15.625223762392425,23.55599388129363,1.161222734324463,-11.948978737414443,26.022346372467215,18.151811505274168,-16.852906651266174,7.218463726675548,19.917388047532565,-18.734699312109726,-10.503619024767477,25.67357112529518,2.6613335369128457,-9.629450159776896,28.928892459304606,19.962350419869264,-17.986176463194848,3.4338409339043263,16.033399669032576,-20.008070605996117,-7.037574782505025,33.864430337947155,10.878635605843588,-7.757266727835612,21.953432921137114,6.526410404702894,-32.83301185376075,-8.466836938333895,8.074175399543849,-26.126195072684276,-13.824072366469974,26.581042083050903,5.683182633264707,-9.691997841462856,22.044888760436336,7.534195652447266,-30.354051466365373,-2.042841307966313,20.468007363649974,-10.101008787082753,0.2681858951921896,34.96215207261916,9.217156597077519,-5.501594779232112,32.784649746337635,24.843193685246053,-10.331863678049833,21.125055183542205,53.78245272846573,43.65003826058588,81.78461313353381,140.6290910888331,124.89665774292511,105.43709336458176,131.204607874049,109.3802291765102,58.43450445317184,65.57569213629655,60.01296940528266,-0.5147477053733951,-14.821136864194479,3.398131204755547,-33.47787775382531,-58.428585106559325,-31.862790214572232,-51.65353608521359,-97.60463783395645,-77.9134552880787,-60.978628724692044,-93.55665965808684,-83.40550015763672,-49.00445162656203,-75.14642027861032,-87.55537995384135,-42.02330899995661,-40.14469310006057,-69.48048229183418,-43.0165774528137,-29.216379449034772,-68.39904288286387,-58.74161644941355,-16.496892492143445,-33.44781127215623,-42.89582324601447,-3.6462887269082174,-15.002939730171226,-56.85566069717505,-34.493506551811656,-15.217439716838307,-44.357656259999914,-26.32354136941754,19.7450819073052,2.474340176580748,-10.279010877789899,25.51114963288488,14.142655350803842,-25.087328500680858,-1.2660862872900225,17.15031921856776,-15.117863375681319,-3.522311657567302,33.51974460298682,7.250667644955284,-12.896757099705553,18.739966734500076,8.67729567649169,-24.55349746218104,6.377213126497775,29.328320342048126,-3.395451524026182,4.645717295279585,39.8139695931317,15.488529750283828,0.9065877185665188,39.02262796250176,30.433814970647084,-8.656234408442801,12.081236608017653,24.08219586155899,-15.52192358615767,-6.054987588399673,36.99994445802681,20.90054521886512,9.45714875342296,43.89399188573017,28.30644004916901,-14.635348718247252,10.539605398666616,34.12435115936073,3.9352540425142806,12.073455007930725,44.07873721303069,14.190246725574633,-5.877829970462948,30.9714627115585,25.68269814703747,-10.043773129601474,12.571440439004936,26.472210108333556,-13.150086455367141,-7.536169285234687,30.941034132046042,12.65072189434226,2.2310976891105225,42.37975941327329,35.31699153779486,-2.975699042896414,20.0442570364877,39.177439845242304,8.878138336080161,23.966216389707032,67.47036214153488,49.33486439886464,36.54847711805505,72.60007573285502,60.034871171865746,14.30213021376126,26.17061616754976,32.32195866430411,-8.797970154301641,-1.9212555565786325,33.7558845760433,5.306227491654743,-20.775502462948676,3.7675480772070262,-12.857795231518947,-53.328383853450795,-29.673165694312537,-12.897151915348353,-51.033803878758235,-46.861286556402625,-12.844978985226176,-37.13613053714762,-51.85389848266276,-11.65637996546968,-15.166472489403404,-49.64492955045506,-25.020865999841124,-7.997697951078876,-45.0001735059658,-38.70143759014789,-1.7385764032032363,-23.361338467032013,-36.45836894036763,5.219589176084895,3.6601054563668747,-30.092466707534776,-7.562341032387025,5.892573078024906,-33.36615402590961,-26.810870284679634,11.805365994111048,-9.45849468766568,-26.10078389975728,9.121416173601474,2.6026252999018684,-31.740843184253595,-5.8152053359974225,11.890496399274445,-26.035373511736566,-20.17721693156836,19.28129133836935,0.4122958028254402,-14.054417002716795,20.886101056766744,9.371531083954148,-31.90007206289407,-9.573989562240959,9.601049693850861,-22.99301664099789,-12.068503876245734,27.627989260976072,4.3401343197942115,-15.741862204516012,15.735521356916554,4.39786241465263,-34.78266896711314,-10.275241552828959,11.877668210669354,-16.669538516304996,-1.8736206169458711,40.41546605105865,17.13597356239201,-5.875551864189083,22.69795827244551,11.524131021565008,-25.41658788692661,0.7890548411192242,22.000089168603115,-11.640081649384127,-4.385833140640814,31.7821032166284,5.745347346313526,-16.386227779780494,14.996882995721943,5.368664911431056,-31.001617665361124,-2.959070343579917,20.471609967747003,-12.13906071763966,-5.153459733541398,29.92333702689254,4.257769483964475,-14.54348193213119,20.722297043455534,12.623706710126969,-25.663309597418255,-1.1494226754070347,21.346417118060966,-9.495812116821265,-1.6321917080349326,32.55039773305306,4.698677602310292,-16.35333407551557,19.780997917049326,15.564923811287297,-20.189122256551734,2.4106786420967197,19.38484684674322,-16.566527842117893,-9.474167218331683,28.26727351402893,4.403317497477641,-15.398025043542884,19.991039197921907,15.075645534693113,-20.73443294001429,1.1393895671212384,14.447503773472825,-26.716359161205222,-20.904283924914935,22.343439226217384,7.598477424761466,-6.716875535085638,25.10646896962539,9.929166005933453,-34.700740575791826,-12.536374978929555,12.172187895128294,-13.419279570708618,1.0737789559896918,40.61821417223025,12.649092398751241,-15.934039487138024,10.384771500548853,1.475494602439042,-32.11991700981831,-3.1991934832435067,18.82268292399899,-19.45412847903957,-21.081227280984535,9.368397302949443,-14.49541877070359,-27.271106041789693,17.54498142479187,19.056720008408973,-16.213237550946218,2.5174956051830684,14.28652013496927,-25.014215507295248,-16.593097044199176,27.122547774363717,9.933335597465573,-7.2842044346004124,24.054853493258076,9.216308149787803,-37.856404623576985,-21.22704478940068,-3.0952940781327314,-33.80347922776303,-19.51913652061846,26.04385752152976,6.589327974363606,-15.363993675750383,14.173270969562154,4.355284337876082,-33.264263806272446,-7.405671944289596,14.875741938765596,-21.364626969459117,-19.998088515633103,14.688514114718418,-6.75235630804381,-22.162644537539702,16.909628469596555,12.352729088339968,-27.897827977940793,-9.141858715652987,9.158373316000667,-22.993495209743436,-12.115709219905485,30.474702473251213,10.833304874823416,-9.651484765727625,20.208532576118976,9.009037843094587,-30.550111074300997,-6.109371496318653,17.63490922494554,-12.817682408844663,-5.256552594493455,30.53071908551454,4.34947508218333,-18.78905807033653,12.929815561546302,4.61783070855636,-33.75761039604078,-8.418690656524035,16.45798103050855,-13.787642120414603,-5.69471379175307,31.376570921535976,5.777073280734822,-15.978500330877761,19.73101196029562,14.897970642383909,-25.38053170454209,-7.180328133563094,11.577594019251691,-18.256450097257513,-3.3591652573304334,42.75112327199372,21.226443741743367,-6.537652585239363,18.935714471290545,10.895811368964921,-22.822568745347613,5.017438065196718,27.718554608539037,-8.52666328310356,-6.080096126324229,32.23004044334612,14.318343368230531,-2.196820162017808,31.582362647702496,21.153128876115108,-23.971042815089042,-7.379819527223962,12.583460946021475,-17.468963840608374,-6.467485997127493,35.55179364422828,13.505056872880653,-11.668000657873119,16.26143916511695,8.267210261994867,-26.563375180961366,1.983419046657076,28.18417106185489,-4.2183138449998765,-1.2567493056294587,33.0097895526495,9.067983890930297,-11.151018541764461,23.14964403976895,16.11431342782657,-24.511032347922917,-4.187124717533138,16.560697544967653,-16.099456357977896,-9.343446202426138,29.541681343078178,8.004233205536792,-12.530779610330246,21.100830981507723,13.862165161722192,-28.9874900231168,-12.725068968612796,6.368016479091818,-23.52037884416575,-11.591778804337022,31.226127364492747,8.967825103984417,-16.724735181312674,12.464945821057547,7.199905377111291,-26.437033700324648,0.11821378844080854,21.829849175073587,-16.495069922386676,-19.538859674969366,11.503875496438749,-10.514046445550807,-24.83811652374049,16.679808864024412,15.824006684517585,-22.72971631179097,-4.201664175503872,15.93829065368858,-14.172408556532584,-5.417983068197749,31.557616800799778,4.1225045600649874,-23.514611659569553,6.321692151190021,1.9020505565230366,-32.27886159572986,-6.912826473916674,15.165193349377727,-20.21257211655086,-18.060230715561055,18.66374899183848,-1.0562248559894343,-16.906982020086094,24.873826720485255,30.00506223729195,3.0401379420086148,37.837444308312996,75.14311427988653,59.26440936421078,81.45780917233871,133.98248106307918,121.54526749394901,103.10809726922521,132.37108284300894,115.78007409040174,60.10779292033433,62.1807542644751,66.27364687677388,17.922340601941276,6.484221427671549,24.374819816062473,-19.960446164487696,-61.40069237148209,-39.561793624518714,-48.75497616556979,-92.00674741201223,-80.95738238467987,-72.19796618049124,-114.37969350035561,-110.31492639423149,-66.65204341129929,-83.92408874374304,-106.98753411940629,-77.60444976981498,-84.41333993892474,-121.76373561568624,-97.23485778959454,-72.26297959639614,-102.71076470573438,-93.48876081320086,-48.50541729565189,-63.73608723609686,-81.34784803191751,-43.7256174878835,-40.8472346461196,-69.18066651047607,-39.11757937699761,-12.795163386970467,-45.87224034841334,-42.68485755296189,-4.023600007026285,-23.49900609402313,-45.150571454393685,-13.241543473066253,-16.260875233002906,-48.377342334749265,-18.890561526933546,9.090963822537187,-22.861485492422645,-20.45738180343534,17.57663317486617,1.671882297373573,-10.53697454500667,31.517708975002975,30.968140766203028,-8.375311162539704,9.345688591841977,27.237415179160188,-8.731285147469059,-3.7474828009621532,38.895664779347456,23.965513220104206,7.831940725607498,43.42352919021414,35.83062216123092,-8.737919364948784,9.767852484215904,36.439741390590456,12.709013626944287,25.11622907189387,65.72173859055435,40.77667138440179,12.609508296425114,43.15830162947718,42.37783799045908,9.338750135935705,32.47728667103384,53.014266910310724,16.202808434116164,16.069774476394173,51.951781900910106,30.6930955250891,8.33128735591762,40.04765540245711,33.12582930196838,-9.2099246262469,10.136392296363324,37.05398373121185,13.824497921597526,26.670649916216263,66.72256966781666,39.0452175826668,7.248187057824959,36.548955397350426,37.26491187065395,6.1192562086575375,30.291623129005778,50.32760430437688,11.33468466844145,9.186738204698841,44.79344128735701,24.329531968687498,2.600735908914042,35.299725173648454,30.901820884744303,-8.506282174950858,12.091091742112901,37.2782428576662,8.004104991386184,12.770388720944986,49.08618493202633,23.827498000698306,-4.884901393146882,22.81365193725346,17.874977120281127,-17.187160113069595,9.793399084595878,37.654986250915016,4.6829479548499435,2.657345548392799,34.985982046260354,13.817884487594585,-2.9787984445314404,35.88841782593586,32.09190963149153,-13.326858116032126,-1.3202632468549798,17.179883869147186,-14.124319966702439,-6.4338054415686745,35.79989477831817,16.40161932049996,-8.630845656944203,20.142008078302116,13.023214032177828,-27.736021891545075,-5.993585692759774,22.6584503558877,-3.1604114328060113,4.176534075930885,43.353325654118535,23.238078728686673,4.6767049934688565,47.43061886727151,55.97442264293897,24.74337850462912,45.14298485736242,63.33210249668158,25.299854893764348,24.36550767872881,57.15881167255356,26.49310266187542,-9.54559833274758,11.694349017383558,0.8284429387043311,-44.03965399548356,-32.40945374468893,-18.9950818461618,-57.54934794407205,-55.03691774055498,-14.289384592907883,-34.32498260416139,-62.66342873121795,-38.024628253048874,-45.50878525270276,-82.97511574042251,-58.17810414850477,-29.07102069084695,-56.95879798280167,-51.47514519757593,-10.808226306620703,-29.324557856709166,-53.16341077501988,-23.407421125212622,-30.248148538778924,-72.2657203366814,-51.53555779058127,-21.383728147566288,-44.29023611341287,-35.939588175377395,-0.20278476806293355,-29.22498645410587,-59.62873197007461,-25.19454198863435,-17.37465916257578,-44.06513394060854,-19.20908262401271,-0.7357757407323531,-42.412368846559964,-44.39980372511134,-2.137776938980341,-13.470815928519903,-28.6004537876659,8.961321823386058,7.294291450121518,-34.0455233726543,-18.133145467045345,2.378962881553681,-31.37981178602822,-27.492392629605654,15.659326669389028,0.6074938981654849,-22.074596558961176,6.612129669137746,-0.5493213325439514,-40.54416651037547,-17.459105655188175,12.042432260404592,-15.191632990241331,-11.516372049738221,23.38286351276433,-2.082355213858861,-29.145805546019137,3.6187624487251924,5.867516688167473,-25.31153642910352,0.2290413790938537,25.05382443524158,-10.221710292197969,-12.430640470687333,23.612749623178598,4.630722521695848,-16.730168255101216,18.609855439728936,19.622647049582838,-16.942020932320077,3.2688246113513237,26.758272005570994,-7.040185895292613,-7.045751444251753,30.631434899035934,10.639041849999469,-15.039420098775912,15.270481659666348,13.229748162927962,-24.92544985214012,-6.11076380251429,17.240605499424113,-14.140857748094184,-9.75746907568245,32.92425290803382,17.447009387598627,-5.333424757045657,25.41228345590644,22.120755309704435,-17.521688505912806,-0.2657336068387526,22.218735269802792,-6.911147921797838,2.9846795374579376,50.452801362100956,34.21305600161726,3.6880861739272532,23.575523912808343,12.652671080076223,-26.76980889756306,-1.6066962707866708,29.270479628943434,0.3753527961921428,2.0430014348581915,40.61742570902326,22.825165790781753,0.4566393632927843,32.58892848827489,28.123851904970294,-14.62412839939509,3.1723247403771406,29.626850465803148,-0.09168637854838835,0.3993872705299095,34.55654364840128,11.287748347916036,-12.662000094023881,23.239167085466722,25.091448941510812,-13.218125532059835,3.5173768494335587,25.482290181105476,-5.755438585258041,-1.4531591113757667,38.65647418668891,18.651424866067607,-7.981817298924868,20.92106547354067,16.365526329541566,-23.75173550350756,-1.9514554503649428,29.765170123991055,6.396345528424476,12.885121346837348,49.74644143300415,22.040166321776482,-12.882196352158314,13.57283346397968,14.363356226010742,-18.45500381244283,4.36900873626726,27.38754475140101,-10.306395968509666,-13.756371717666102,26.149856512399285,13.230095141557532,-5.274259759485069,28.515000203577493,24.002255644475042,-20.56041711604559,-5.804866312005677,18.897661571601788,-9.338941284043788,-4.019768833010479,37.46093381044865,18.664708921101195,-10.48291524416566,13.351180167091302,5.906406495453545,-33.880290204663396,-11.304577354715544,18.789681733747933,-10.622307546614254,-12.558639332801967,21.45029353145649,1.3301958761677337,-20.72216783894434,14.569223766287092,14.73624381832797,-25.868036331356688,-9.588539841689498,14.802244966152282,-15.150477540260296,-11.988815857836649,28.51721946312583,11.566214940619274,-11.854597607842141,19.43893328531854,15.163619116950214,-30.145664354809067,-18.57504509950437,3.6604835599168766,-24.1079287656089,-15.727389641795765,29.246752688506014,11.069922602504436,-19.958242290613867,3.8426121221694327,-1.07943704917695,-39.51232407712888,-18.111988223261015,9.910553669012442,-20.64111387093846,-20.20761094166229,19.675269210408224,2.788630362433979,-23.24222049571917,4.366051267426769,-0.9407916813142752,-41.46797575568807,-18.89355236632349,14.14997132801118,-11.241148674015342,-9.350340498712447,27.043631367938296,5.5655409549670125,-20.83367214426628,10.632113600438146,8.680296240946134,-34.021109616095174,-20.295924801489477,1.997111190610167,-30.021177969388983,-28.535664975320934,12.194038074981894,-4.500304697392355,-29.90321514113855,0.13124249185225878,-0.7487484111789007,-38.041390726907615,-16.823112142172576,11.305170690305998,-19.40680002718777,-20.939284620100263,15.338977817534515,-4.444148006971984,-30.490112625390974,0.03469398467144913,-2.1830084045111917,-43.28140062920481,-25.187894523343374,2.9281978101865693,-24.597604727666116,-20.15880862120332,22.436156481011587,5.857748695010953,-20.30278007880218,9.22070226546145,7.509538067954004,-31.197230832104708,-11.302206213984253,16.51696885979584,-12.224099722235357,-8.893587067802946,33.88077752678397,19.195872540094605,-6.07799580061684,21.296260268935065,15.484542656738745,-26.993911267017427,-6.469590912013885,29.708059581241063,15.400984506928653,36.8214763224844,100.75005143543497,107.47900005598208,100.51319586201372,141.9233284939914,144.15694121293066,100.9892081846732,110.90126175293655,127.62472112020812,86.00080789764368,71.01726941591532,89.99876027316718,49.23812094374819,-0.010247185058513963,10.676034687419847,-3.4413603864811835,-52.623271980502835,-46.900042814348055,-38.0566735541542,-87.58558258250407,-100.39880203680107,-63.96885061769062,-77.64741074237746,-101.99721554397684,-77.58910180681077,-88.18755845373943,-134.02252178193027,-114.83235978436035,-81.5953265794947,-106.08347845825557,-104.32505796842068,-65.868736583383,-83.2910283398977,-107.15439285608532,-72.86699816765059,-68.5014611089656,-102.65550535839763,-79.52240843363438,-48.26509167500682,-74.73921038025019,-70.02924321463712,-24.797905180709026,-36.9791588180974,-60.01332491137108,-28.132359238480117,-26.78199054964289,-61.74500722731952,-35.96808087576067,-0.9219159818393337,-26.906492336329926,-26.68612874114828,13.005909439827212,-0.6713290692444129,-20.169417294520073,17.197788630370923,19.96737186729244,-22.59914121980261,-10.434677948417072,14.476435654282522,-12.065787389429442,-5.56114993036222,39.43863865948262,24.24213789586708,-3.618517623537473,24.556173996907425,25.30504041237145,-9.803801322107754,13.439633710178427,45.16761232604043,17.71639746777125,17.74400096790757,56.01117707261977,38.45933818355596,13.097203579240814,44.526097070236126,45.12234705332901,6.318239089252097,24.518625292771077,52.06000997363532,22.262049250640914,20.7807096297997,57.90959034950904,39.70566485036457,13.195707866570894,43.63915282666277,44.23901821201896,4.406778610897842,20.77786333151211,48.6668547049005,22.031338174724866,25.90767739119208,68.60606239739289,51.6124855879108,20.24476430857562,43.59680210971141,39.78235874747361,0.4851654696329426,20.68186670758356,51.21238207554347,23.544840453564415,24.946001156335885,66.63742661045771,49.94812766497537,19.046635624682764,42.73534325239242,39.16954425729582,0.6192560652662422,22.35122034065712,53.29272717584884,21.246645301858,12.198725980413913,41.90571795778995,18.438689669515508,-11.295496888790666,19.314845433178153,23.057370528503263,-12.933125149877103,7.445932791514718,39.162812575766,13.741347991532765,14.871824691143173,52.42279787703955,30.51277182070936,-2.3774977992985615,24.290734593161414,25.32480762378195,-12.511706000256652,3.9850589056635197,27.66473967904399,-7.099411622653378,-12.665503171910721,22.43754325241934,2.625583348198413,-26.02144427105171,4.051568069190999,8.203879478918715,-25.86672243945291,-5.31385164331564,22.715303843055274,-9.230906163806317,-14.476018191423382,22.310564027252042,7.743420886649887,-14.542116854848386,20.57741596034586,25.523397274674757,-14.076209803926247,-1.862757026771348,20.43576672141869,-12.066146252343096,-13.425386327924917,26.697058434083687,9.73650179886148,-20.944864813590804,2.9533655834720136,-0.10142279899025475,-37.93309845770569,-14.740762949361034,20.261450916751954,-4.0812446982634185,-3.363586467690175,34.9820471118056,16.90709274967378,-10.07195479179594,23.30994449813889,32.16559950647921,3.5300850626600333,32.194010668716416,74.69011693988789,65.38982113309821,86.73480131893001,143.34011410168932,129.77390182415922,84.71871301076533,82.6916109902671,54.76912908991382,-1.8781079858999163,6.273643127336532,26.244513372976705,-17.790486362449638,-40.966308226107955,-22.81769850671733,-51.78607554909314,-82.08432943439648,-50.23827584223731,-48.090407424818494,-92.4092048915428,