-4.628068189879135,-22.802449739688306,-46.21769682380262,-53.33546737857816,-47.31915250219081,-38.90426713190765,-22.054088530766727,-11.922858934842214,-25.12289156626032,-31.898562617181025,-18.895791480584958,-19.03216361750761,-30.421320085898806,-26.166649732000778,-23.299624513025446,-31.168631131698394,-20.51170419871417,-0.7338094438406362,-2.1645550143146655,-3.1512449265753752,11.303841686923288,10.793772909961199,-1.706785756863666,1.4738061078382136,2.4142761505845134,-10.70745148221879,-7.9653984235773505,6.537912942424732,5.086144422176149,5.434423710705383,18.796545288002836,16.177832010767496,3.794362482223554,9.610893679499721,14.467150691672572,6.3474288130507865,13.883410434147327,30.71765334199353,29.260272233234158,29.940855015125933,48.44420510778353,59.58245618203901,68.42496016793953,99.41096675803286,130.1983667702767,143.486316146503,164.12954787045726,185.5369863584884,178.82619633548217,163.75694770221327,158.4556844016958,140.5863337841168,117.66377581562966,115.8894014376964,114.02498939817829,96.80187061139826,91.04110028675466,91.50560410231955,70.79819232275477,48.31737362173997,39.0845413891222,18.186421356297487,-6.758501933544743,-10.099867447525959,-15.857634923452618,-39.85854270174835,-52.54313044840784,-56.23997257403856,-75.4973411697752,-89.61658660949584,-87.02788262203183,-97.95530970390905,-117.10119820921798,-117.884237551122,-121.72329935574176,-142.37888079266176,-149.67026475943453,-144.9040838748734,-152.03982766438884,-151.66086863780703,-133.5499861091324,-130.03095634025223,-138.58251454229816,-131.77586041457857,-127.49260680912826,-137.8514716323004,-133.69655802358662,-120.02961204198945,-124.08507414533995,-124.2994402285307,-105.75965912291298,-98.2374132682429,-98.54207227027382,-81.37439735739592,-68.67815092464356,-73.90628064237514,-67.09335663410269,-52.97566101430945,-59.41864117340593,-66.98733301946142,-59.96211608520478,-61.86326383420434,-65.19532634440482,-45.405144063897076,-27.179566385638676,-28.63609222089883,-22.953423698836893,-11.671877421046409,-16.743109294325908,-16.813720926885637,-1.2381436448910588,-1.4263346262742975,-12.256898909091408,-4.873156226937583,2.743973856698503,-1.7090029195883174,8.571302127324442,25.080978529945835,20.1710685488099,16.24483515145167,28.45309277024679,28.81302258353287,21.899778097241835,33.105080717334346,42.34282705409442,37.24060136911277,44.43286310783975,55.27896279682752,42.9751921455546,31.49576198072542,38.09653867203248,36.26520702455559,29.076290663538686,38.046504664611746,41.57560615509541,30.92258412697904,37.6831797694186,54.1871925236067,50.185311726722105,44.74756118902788,52.01255251439888,47.24400598874162,39.532799300758455,54.02855303283961,65.79279285704851,60.24229641842797,67.37519180696621,82.29594925672222,78.29221489375357,76.36083704871842,89.25678884597289,88.03341216883511,78.79489929586558,87.70814211642949,91.69828317199709,76.1109458411267,71.89008377704621,77.10734303152134,66.80493616388,61.021655513839576,70.43080387928205,64.3697494260274,47.41071832132806,46.454719051378206,44.28234104303038,31.886456799454024,38.419824127366006,55.84337036405005,53.506135868159106,48.056430811836314,53.53186208943726,47.817441444971706,39.730206172243584,50.36445071368939,52.572533749045306,34.444793183586995,29.83149382435517,36.66017102367929,29.023877075190263,23.836842082941935,29.98304570323542,22.13944894925133,11.966681828054249,24.08282623118982,31.007123706837973,18.30307518770418,17.39425282584221,25.142253842661177,18.11228482267643,16.714528712467864,28.507743869586673,22.747797145164135,7.290636471541374,9.192619840710183,8.339937489503388,-5.182815651715345,-1.5879994080436286,11.142993945763891,4.543285316549838,-1.244365280742778,6.473924446936818,0.03565403681493251,-14.090319869306654,-10.033423481934458,-6.8815170215903,-13.829812053433418,-3.0485475833833613,14.859846786517108,10.2852254197057,2.739619668937189,5.990417558432922,-3.956971903326594,-18.578338930744682,-13.658231851039819,-10.834770700639861,-20.946705949144654,-16.1904647739208,-4.769421980198144,-12.042966366740508,-15.738685352558836,-4.300866058044413,-6.142197360086796,-14.581273269552756,-5.845235029787894,-2.219457329354806,-13.533180320482677,-9.991580439180407,1.1276657122158658,-5.31685411363998,-7.975015053570996,1.9114131682117383,-6.0188745515535835,-23.3360684061985,-22.105560726284818,-21.228055722567756,-30.679526865822393,-24.165381781477194,-12.651604013256357,-23.07797041446997,-31.955223165891034,-24.770103506710193,-28.553342909595933,-36.92037557850218,-27.339018701506006,-24.242945274610783,-37.235227782058885,-33.51600679025798,-19.14936231684166,-22.018955937102128,-24.526079614708372,-18.179077679371467,-30.104110529998717,-48.848192161100236,-46.82296361625586,-46.65190848524901,-60.28482635560882,-57.889349028098586,-44.527187298933,-45.22585960387245,-42.15695253872224,-29.25773726868581,-36.38170085235603,-52.20956254020926,-45.479243520636956,-35.41628692655479,-36.15167337144577,-25.222763138274907,-14.368610359629702,-28.355933333453862,-41.11682071073913,-36.0146799809044,-38.41370959302856,-43.19205416112833,-30.499547709701847,-25.590741601520893,-39.61365361308472,-41.75862632465272,-35.42758659239418,-42.46309443294591,-41.8137913590478,-26.027592308777358,-25.85683376401502,-34.27177720955287,-25.302054786600806,-17.970591777118006,-21.343641398803,-8.949921176529829,8.199757151433724,3.1281768544119446,-1.9227228211204141,6.8607569264917805,4.888632001515031,-0.007276509759593264,12.604751882422242,17.312459109839825,3.8465283562023935,1.5195412687412548,4.289933708228016,-8.339777990707875,-12.72046412142046,-0.8992015668804259,-2.0553865299068077,-8.116236067188632,2.443902859065151,5.696510816251451,-5.910465176348873,-1.848307278508464,9.805864735969312,4.996612319741258,4.62536762153447,14.870814832950925,5.395817350144566,-13.773193614061155,-15.607079290844785,-20.262860906914224,-35.8849108640701,-34.23021123903975,-25.505932122689387,-34.27922005566018,-36.84010053533614,-22.783869243719344,-20.566253762237164,-22.225258730508237,-5.686982320144574,4.598043481342908,-0.7733007506731218,7.2849820216144945,20.285942104886104,14.414553038331448,11.20135094235656,18.177075175995807,7.134993249117925,-10.731762393574417,-8.977663495745572,-8.476265504209593,-18.473858008100585,-12.38590799024852,0.11095281390075318,-3.39411984505882,0.9635989401582843,20.89142016062104,24.213818914064994,17.763727082826236,26.568361870996043,30.118022691978062,20.84813420067471,25.662370950153303,32.01926692770769,17.21072569145003,9.281863225068635,20.068535940993037,19.542977916239785,13.004598216971921,21.262385699635832,22.18516920408223,10.792833770417005,18.449635446493428,33.739848019888505,28.127085126070277,22.859585215080436,28.44307351177398,18.528658553441566,4.619880055810937,11.175740838515038,13.902384361623746,3.3192621874677988,9.022302780614837,22.47785369708676,19.257840601870022,20.770421047649,33.79557105818951,27.681301513052176,11.04551956690867,9.750973055324685,6.086414256649007,-3.5631864600787275,9.50359976491487,30.094895570737904,27.133276379581968,20.061991951974477,19.804941360376958,4.502881415704908,-9.674866959097535,1.6629099559167368,11.017712616742562,6.3658990517806116,14.85935133625865,26.37230948639907,18.985206574013837,16.71905482173136,25.223171556450858,13.422077470782007,-8.014691910221753,-11.277485187420535,-13.747588524384767,-21.96383758221472,-12.005374122618127,0.8925894721989045,-7.13093839607896,-9.67257118773977,4.452317126975515,7.368111099711436,5.156970587711919,15.558748745040484,14.373355791583835,-2.933181967933378,-3.999401615482593,3.785148428850134,-2.1269118161747054,-0.6641089034391359,12.364624134592816,6.586947580018037,-6.929754829316609,-2.0571651590960505,0.6959637815446821,-8.525916647835247,-6.318573244881057,-3.589135394929472,-20.102908539341232,-28.533804006243848,-17.10590615305447,-13.674408573629114,-12.897411972087887,2.494395962335954,7.189383066972168,-5.128946648899017,-3.064792567504669,7.0490995908203455,4.16055396299081,8.970228900034526,24.3188097241036,19.99859856749332,9.106924222603325,17.591728464874187,21.765769666972627,11.87508938655439,14.066921546826574,17.044658729365565,0.3120458323855768,-8.701443222244743,-1.0707394066574714,-5.473910733164546,-11.745697310619317,0.02332936082205972,2.733782216435202,-10.437031472291551,-8.434777515849404,0.5947733142554013,-3.678013686775927,0.5123457967632872,14.51497407225892,7.7547566869456555,-6.884294570898137,-4.632405295211231,-7.151329959954335,-20.282926696367927,-16.704956050750216,-8.284982145398438,-16.37230867622149,-16.54093414810773,-3.031213391143089,-5.357350166792709,-13.853479209419913,-6.734347490527823,-6.008517160696966,-17.428722350360246,-14.587778220339143,-9.932723527244892,-23.969041924897862,-29.908902293330446,-19.171182102579323,-19.335538024261155,-20.966474406173482,-5.397253999859403,2.057369858308345,-4.369230100713163,4.154166541701288,15.97643956860809,8.620344871554975,6.798331811733516,17.227705875388335,11.063559725387982,0.27038376786155016,7.480008523319052,8.05143546575992,-4.502925396109224,-0.9149727075360183,8.330242479516698,1.1435010264408838,-0.03444022458716656,9.009433348575968,0.39542723174221184,-10.900785581814109,-0.2626969469212064,6.499603086022329,-1.203970034282814,2.7027454772230426,7.963821340675002,-4.075226207620901,-6.565021006217151,5.174764220480744,-0.5878212808791012,-11.953504035937565,-4.479486101850065,-1.6125907949385432,-10.94510996803546,-5.813847471659717,2.3472519632615754,-6.459065674772885,-6.2775714274430054,8.268636700309887,5.820089339357139,-3.6523959143315614,2.743011959505463,2.669571584562056,-9.18108415392192,-5.38254510808178,2.0394886012268643,-6.841084145830552,-6.067205256684374,9.36502664692041,8.640704663436,1.7987009992277754,10.49496451485715,11.07568253270803,-3.4926183943455857,-6.883275209333652,-9.507929671410448,-28.077542749112446,-34.08019063565516,-22.676463071162637,-27.30106959761479,-39.28139184353589,-34.77086036963457,-32.137194014125,-34.366830709287505,-18.7263977833499,-3.8658507341437884,-10.881529731380272,-11.359392186782982,2.7821945635658203,3.4275571498167006,-1.4832312437428434,4.35536204786292,-1.1646891172666218,-16.45807595184999,-11.614713306343694,-1.562900905971702,-9.335600321860316,-12.84421507729202,-8.376848770999693,-20.995153021504915,-35.17936941671421,-28.34971503414623,-22.210513037945613,-22.14674374895077,-6.3464083762466625,7.658019541071515,-0.4457640822979201,-2.5161717076431054,10.150259323089855,10.949099673660491,8.895073091588873,19.879236794171494,19.795474600117657,9.311318591710162,19.598956316068186,36.30005458412936,35.56483460797445,38.804971978688386,48.2975490013891,36.88726419755435,19.95115021734813,20.729721692949358,16.831550092481912,4.328654556301519,10.31088930896361,20.972869175655553,14.745541196511336,15.257362320254556,26.165073745074842,19.393089224506852,7.896060244621433,12.79787398066394,11.840235579866821,2.173185526555198,8.855503192309486,15.871358629355706,4.402877921552491,2.751074668646971,16.815392790299864,17.809107715874188,14.388910828941967,21.394943534100157,14.908452863892986,-1.9755244051983905,2.4784323168530125,13.283986077236651,8.066325467169996,9.66735882162882,21.296177835265077,18.094026597799918,13.631858842468839,22.97725205924246,19.97915401095605,5.269464434122225,9.387354884208891,18.24105932753396,10.534280708997517,9.975207770840578,20.022063244224718,15.193259879018939,10.865596277647088,24.329564204380524,26.435205589554286,13.638970503869139,15.904770920976548,19.80808795769388,5.9924818864163605,2.0997912204019062,13.666586969015077,12.994190430281026,11.699751286085382,25.252109063443122,25.403516578079767,10.85812954321818,13.52293869079984,20.959944992371177,11.915748892212518,8.66351739141585,13.843668786470754,3.27313778376437,-6.303159986061533,4.11395301710204,7.738051635051486,-0.2072191042925926,6.135818648254367,12.532388681835009,1.6663004020974288,0.333057732292408,11.523477223156721,8.551160217799534,5.142299024156719,17.248718988971678,17.484762083981604,4.018109625487625,6.501123260699233,12.229647945807555,1.9176836010535947,-0.6439525822146541,5.744427663633607,-5.439443083284958,-16.803672354125432,-7.899875444555376,-5.517139574441205,-14.219028035654581,-7.254754181926497,1.494402740758686,-6.881834317484417,-8.388639029344404,-2.1257991950802317,-14.892859351713327,-29.389453833273798,-25.079915494328105,-28.06084191586517,-41.42817404083706,-38.11816636400433,-31.61352794802383,-38.0968077206636,-32.189656915974425,-14.604465172746348,-14.51734093651438,-17.895763196741154,-6.735620918716021,-6.517236739461303,-18.36059992745471,-14.605751036210506,-10.61994417612555,-24.193528731667936,-28.194643819024883,-19.962547329265526,-25.88977757900364,-31.029403822132824,-18.955345723003035,-17.774692302682762,-31.03737175749038,-31.290793986041443,-30.502929864778977,-43.001978952854365,-41.34414533685052,-24.473710894700176,-21.120757327605077,-19.719512331455267,-5.414950880277312,-2.7242534537047076,-10.943271211930387,-3.1607023134552863,5.644385496208867,-1.393143827996445,1.493225662601846,15.419313785351191,13.581911754231928,10.09725399958677,19.40368754457683,13.553327330660608,-6.182895484581349,-8.152085768579262,-5.215479362647304,-15.013982917653053,-13.136922513061155,-0.3239009018398775,-3.5686663384532933,-5.776748879920743,10.297145877350962,14.914408298644938,3.8821648777612223,5.959524935543409,10.583493095953084,3.3521982701345494,9.02740982285557,23.766032167867593,16.10388199522979,2.4214599243412662,5.539112249112555,3.7235374049840706,-3.729384576440186,6.839046111639959,16.114377229304115,5.993962292916215,4.17688657741184,13.013043627883746,6.8498200388492165,1.8056495423743926,12.98007225271346,11.917212767794059,-1.247564445010398,2.4621906110207816,9.52279031351775,5.404081434623471,14.066774400945077,28.6996390479405,19.100605049848873,5.272912561502191,10.59520305542691,12.825791627206273,9.78083238794392,20.80260586274197,24.860277886246593,8.331085371528221,3.7885746587413864,14.914530238469387,13.783705334075904,11.074680346252908,19.07337206899515,12.783356070464826,-3.2706827116329604,1.0666779230535752,10.563405961589222,6.6382662128139005,10.300847163932636,17.494550371017965,3.9848292151247464,-9.083640209750268,-3.238447800083345,-5.124472225101956,-16.89109210491365,-13.689770444396803,-8.62346360206408,-13.437636308863356,-3.3488393229244897,14.42280725618906,8.879423611156215,-2.177806619447353,2.2076492218894255,-9.127835955067255,-63.23517204447246,-144.47050560239632,-221.76641856499077,-267.32233544883354,-259.94980102537244,-203.58949123526753,-148.51302837008916,-143.71691072920285,-162.70004809328142,-155.7596605593046,-136.16313625366774,-125.84189096224716,-108.13815987583774,-89.59787892009027,-91.0755645221681,-88.67681556193239,-68.96966654844348,-63.77105701788232,-71.0241895153283,-59.09076852593168,-42.83091416385916,-42.48429050412694,-35.67104421007568,-19.6872088225758,-16.51875934999901,-13.10332656130111,1.029596551713568,8.470140532015236,34.203710097051164,113.15273737704494,205.04556677766342,261.6552291817859,284.3774439359541,267.589212866328,216.1785898609504,185.97753361611208,196.61849369392345,198.55224330834383,178.12269059848674,165.7230693550195,156.94230688149645,144.89985407920238,151.5117654318803,162.07539936346484,144.74475463830177,124.46912184275024,126.15796135718983,124.29542380152745,114.3925796200354,116.6494730755995,114.40202042557273,97.43829684725286,93.17867022491896,97.97042235818041,86.9534369075487,78.35601835599633,85.55572493102474,81.32999672269169,65.99253544304105,62.41340982011975,55.29390908603136,36.26845803686588,33.71297270105947,42.82730610959959,36.328739031311,31.640012050061067,44.75621415589075,52.2209726838159,56.76887087692142,81.2248327434869,103.93994182606946,110.18393613855835,131.70186445738298,167.23309135145632,187.38245874385277,208.12036388674764,234.31298320695925,210.30859107334788,112.50691527267253,-16.584854502882393,-138.28253611535715,-209.52956199744375,-179.4141478836613,-87.01413235140402,-41.65106370996117,-86.50240642087567,-197.67892713599127,-339.2154357656745,-435.79569930034666,-413.663820485219,-288.6240315589167,-120.83231699225519,43.59882142964801,142.3551886421655,140.76998847246895,96.16406262672416,70.31105814810212,57.5124520536539,49.30219411885591,48.88742563803018,32.277426243208,-1.460268389594697,-14.92302054166119,-13.686790709592886,-30.152282835459836,-48.26231635898722,-50.38279428863177,-59.593521281448474,-75.4509808325432,-76.14223960052774,-77.20279630385535,-88.59732877547412,-86.57302487543703,-80.89988697955648,-98.07546235792671,-114.6048184072809,-111.35135939534425,-112.23854122357713,-116.21924377195084,-105.52734472228784,-102.73886543404917,-118.2841034708764,-122.35539686985186,-117.71027126472029,-127.76482437996295,-133.0555050694513,-121.10298188355424,-118.25064282084186,-121.38902170573247,-109.61269094900759,-103.40721860200898,-112.91178094521614,-109.61775343997996,-97.92876092160682,-102.72029791826222,-105.69717844940625,-94.99738346786268,-96.67686722443048,-104.71547409692246,-93.448136782938,-82.14393851577009,-84.8823539218658,-77.15241357727604,-64.46771564809033,-70.73807026954395,-75.48519169945754,-65.30656538520194,-67.64149639250874,-79.60742824817459,-75.239513950427,-69.59477822524651,-74.03119454044001,-63.819770148894094,-45.04764318752336,-43.68132655027344,-42.428704494647306,-29.652948808174184,-31.087847901429427,-41.306167755860926,-35.05989348013474,-28.732240118134605,-32.71340974402846,-23.1095832195615,-8.535694213478571,-13.218189105509511,-16.85383124870177,-8.491754043623484,-13.50763586770307,-23.815355501751593,-15.770339086031171,-10.655727798632574,-18.706273242185397,-11.212618401451563,5.223576961722503,4.691290726483846,6.759677395324552,22.26056949568466,23.73262154830848,18.95906278381868,34.235021466276066,47.86453064284212,45.306962258116656,53.134966580325155,66.99805810931508,63.957998593487034,64.50119188087243,78.56450489264823,76.02321381355058,61.524587453890504,62.476815022701004,63.46300988898332,54.88007091501599,62.07716908529879,75.9041911635547,69.90029737246003,64.78816192545983,73.83048859367415,70.40015504219622,59.91277307997494,66.54326596987966,70.9889411240179,62.71168757362753,67.01550767995758,75.97868621151945,67.43635223014806,63.98764414076303,75.92470011319998,74.24007927018546,63.487530026352815,66.17207518780583,63.348098137109346,48.64406160938469,51.5419901416496,64.36676045586508,61.11179102138138,60.30365006691597,71.14710427085384,66.02795997456167,52.43062058595432,56.23785732685231,58.5304386759484,48.45902075447902,52.35586712329484,64.01985280710775,59.51962407435134,57.05085115625189,65.55268020527902,59.28570672025255,46.80445602014779,53.02163237290715,58.36883382787775,50.6705685598408,53.44865803106699,60.19112647102429,50.34923982516636,45.30235089204035,54.484588196388756,50.23133338644052,39.09788581154524,45.68693598845771,50.19179720123999,40.37968345148121,41.08930878354841,45.890694588374906,33.74583201094388,28.09878827464148,39.761440553198916,39.80076541540587,32.704317701774904,40.30754354748176,42.98578628889392,32.53755872546463,34.69956779195739,41.097428973277275,29.467295566250428,20.794829818898734,25.840891309211756,20.579140870032674,12.63851211769391,22.52840517579397,28.289138529070705,20.581711026285284,25.15290709034226,32.169664882098516,17.610900685273986,4.714333077724582,7.3348948462169625,2.438033379229339,-1.3917808464034642,15.237893876665927,25.29945165819226,15.650481586814733,13.840287507776468,14.888395136894971,-1.460296038927063,-12.084285901617356,-7.0395426170949555,-13.712888418194774,-25.77951050204052,-22.367435185711482,-23.64081013755824,-34.56167860189827,-26.308934279254466,-8.781879968581519,-7.458966571498126,-4.965487765108767,4.516553280015561,-3.308645258672019,-15.674697654645989,-9.724216112750002,-8.393665984397758,-21.196814645578808,-22.363610926697937,-19.97181630727522,-33.484028154190355,-39.22124685494282,-29.333013410246398,-32.29286823910616,-40.663336933595325,-32.446279960436094,-29.17960740095109,-39.77798270101915,-36.86499588787791,-27.091154746629375,-32.1468999824451,-30.947444362729815,-15.66710295028821,-15.224311447301341,-22.251605368709924,-12.302077487333648,-4.57461761011167,-8.637433181202383,-1.680464123841947,5.249926226522206,-7.976232306453421,-15.467759739763716,-6.01773170722287,-6.925045917123236,-14.172596971987868,-10.63871866171623,-17.112874044122858,-36.31070614537409,-37.69525169551135,-29.949437764629536,-37.24542912354926,-40.781375973025646,-32.32933540349974,-35.03374474346877,-39.449542263564794,-27.48676158704728,-22.93037979808794,-32.89447837558906,-29.556063382194793,-19.809247625206226,-23.74691067667851,-21.071263515587102,-6.4334089986331975,-6.8506101199976035,-13.07535278647717,-5.4749956359967005,-7.224357234124431,-22.59457818914162,-19.57176563930452,-5.279647726283578,-3.638955924105826,2.8273547468751543,17.73235460195149,13.015598635546684,0.6517394174555982,6.453168396687078,8.858840946274931,-2.2903113404376656,-0.6998047935302285,5.879755776222248,-2.7981435604727407,-3.920543405151725,8.947491552974533,6.584794089498288,-2.769204446532749,3.24451851595212,4.285525720915684,-6.002408488355739,-2.26666996615868,4.170388479012684,-7.0881543820081,-11.950847856739935,-2.7262257384155677,-6.175455604302347,-13.832343437709573,-6.488256258009843,-5.685572723013008,-16.522109406807253,-13.376889622664306,-7.189746192367647,-17.971063658934828,-22.080653186717278,-10.44184835019647,-8.458435727492425,-9.664101609597598,3.2313241937064108,8.254544541985746,-0.9188002504588342,1.1540053115035271,4.968745605389894,-8.741731710570521,-15.47033663744311,-4.758225993748929,-2.104549029211089,-3.5855963446867944,5.138863848699673,2.648958616647892,-12.799606089310364,-10.922627876150358,-0.1624618294506841,-3.8459901147116455,-5.000883453091573,0.39446545079546436,-11.966048433697349,-28.448202849488986,-25.691077278986977,-24.134902356667535,-30.089342244501847,-19.86593247240411,-6.134097008209771,-8.977296758486212,-5.847082298530992,6.769489263198503,-0.8335544237245616,-19.28559667668631,-24.987901760250335,-33.88870013480371,-47.18546186616809,-40.678605272304196,-31.03865202674356,-40.372733752143695,-42.87192543694406,-29.128476076823706,-25.40092884195215,-26.023034098720654,-16.778969097754377,-21.403456713810233,-40.56083888207617,-40.33774738635009,-28.363853252017755,-29.039088247287303,-25.852351406099196,-14.932148921780716,-20.216991636531823,-27.26936580590046,-14.48420097304011,-8.129113773544713,-19.310966737171334,-22.02551943688697,-20.100627637706946,-26.49458507897498,-19.911512550664312,-1.1036325202809465,0.5021055254801503,-4.092370790528949,6.373849137484287,11.160078986621663,5.10101561964011,11.963097525935158,19.593461318209712,10.312523118656554,7.423200119489632,14.151652359042314,5.174199170160598,-4.798487348691245,4.9981281884486055,9.438076842864184,0.8428388540444574,4.528415187238823,10.154705382687725,0.20688412463382821,-1.478302835721508,8.928589486885157,4.89672910682112,-1.6263360342084954,8.555964564162778,12.096195238564912,3.55921085809974,9.123685377655042,18.821133834953137,13.062935518285492,12.764523199152139,21.328964629890958,12.80880463623101,0.5254513243464354,5.352010391811332,4.425505668646899,-6.235240964969677,0.11234543925810136,10.898219176974365,5.771768638976378,6.227491031489103,14.923667219933684,7.6461564373865185,-0.4066129552265685,9.121347227220888,10.616450592232384,0.21897813310481862,5.95389897053385,17.30405885143483,15.587958152416132,21.02776604851054,32.54658571000047,22.916734401152148,8.803607354081455,14.461561685267686,18.26231501837477,14.341360538660366,25.554310750490522,37.0135310024477,28.406278016954587,22.980102624604566,26.56938081015605,15.609538757960927,3.5349657738939935,10.079967526569462,11.812647136478349,2.5512344899212582,6.135477059849505,11.11670811993146,2.2202720828051037,4.343543557099327,18.529005766231975,15.385089855600912,5.4096829280218675,7.594947450009348,2.633858400341089,-7.73255193441638,3.037358505581844,17.409478995881557,12.963151684394575,13.039607991495222,20.805360537912996,11.16691393559448,0.29660243542073417,8.581576126128077,12.162945580462628,6.526203644559873,14.59364007037812,21.172402871298264,9.248314497509881,5.811021141342062,15.767713649060733,11.978645577215557,4.914637256872156,12.120888947499658,11.645281012035014,2.010062049011574,8.071356507240996,14.750973643708965,4.047255149844692,1.5219984646686284,11.552129202380701,8.79162825318815,4.303748718598275,12.688808090571893,10.076363538590279,-4.256111017615836,-4.306931721086887,-2.7552057003811568,-16.230337069333572,-22.05025715213421,-18.111917122520847,-27.852279941816658,-37.078911986685384,-29.22576189695134,-28.288225891359865,-36.8753563940867,-29.739165999599493,-18.005551991453444,-17.81977913066238,-8.717786378082835,8.288376895318345,6.0416255770368235,-3.153501688438916,0.3755664201391311,-3.196680020544729,-15.780591640874587,-14.336121990678613,-13.484891165675787,-29.466688615115853,-35.01035412955376,-23.366461651009303,-19.111529001108945,-14.023956300539174,1.746272176526377,1.5474268455726787,-12.959910342819562,-10.499470018397783,-1.275748609708402,-3.264176067775428,4.235370892365243,21.66939926085851,23.70115429303943,23.28534047106944,36.85033971911533,40.170748858751594,31.037116914781016,36.04023039588583,43.60953674792521,37.60230842002311,40.366831242369365,50.27844294522657,39.329162505605154,20.739764522936834,13.975997659373526,1.6344344791038652,-12.726368075471193,-5.419726389958004,4.579987021892598,-2.882477832748685,-4.3671906788752795,2.6246403859277296,-6.003341672873132,-14.868809953423048,-6.899250519469181,-5.768230744931813,-10.38004405337931,3.767447029378764,16.306269648613487,5.993682064576006,-2.205160410477381,-1.653700259668208,-11.170238961647287,-14.897661077856128,-0.001752469658900857,5.0084254936593835,-3.2542728822981655,1.8870422103798399,10.131781845882532,6.22178863117733,11.917842376182422,26.97453802158366,25.73484587676847,20.37677804801882,26.298620871955762,21.443828681770192,7.970777610710812,13.481742325993467,23.561562611355058,18.670907193773367,19.179364515276042,25.623528167175174,16.32347452916449,8.789003313078888,19.102412538509867,20.722326534257032,11.280205317137444,17.38314983317178,26.520484918344597,21.448770323416607,23.639929569741398,32.02445387890362,21.955386969046764,10.467931156274432,15.592681141172777,13.420093352479643,2.9230255346045686,8.02488749629813,12.970643209957212,2.207353612777222,0.7591525739030192,8.475212412519532,0.22773156647317272,-8.228501172193319,-0.9495557341171543,-2.180210247331079,-11.93322012886862,-7.219722288358521,-5.665362205084165,-22.224519027862613,-27.94717557303592,-17.643496094648583,-15.45908920848012,-11.626583963741613,2.6268840194556473,0.06172513715236194,-16.350780828755774,-15.822547552818463,-9.07848258268518,-11.570084725542165,-3.8215258085349175,8.88967047780436,1.3715584368890896,-9.254486997357029,-5.624295953288785,-9.840665629302402,-21.58553578736575,-16.953014193323682,-9.662235306207808,-14.857040259800888,-10.76805834330806,0.781103152372987,-5.0377028477384265,-12.35154439046866,-4.9684483255357765,-7.538140188756447,-20.53914798335037,-18.53654458044448,-13.928787696062486,-19.9318681501179,-14.640461330642085,-2.6597216591283575,-8.712790216384812,-14.511283007338395,-4.194461805022108,-4.007229450484079,-16.25854753522069,-18.450179350159303,-23.47216090374156,-40.5566159104205,-42.40001259012503,-30.57271745379621,-32.530147233051416,-35.66431315670243,-25.406790414605016,-25.315227335643193,-34.196362492563566,-26.931382309285752,-19.177635901363956,-26.525540988672834,-24.09676296871485,-11.363785369821999,-13.511613690839091,-18.67238553231709,-15.024967244153146,-25.310388083261753,-43.28877191764679,-39.780432726878125,-29.713556458857155,-31.840097830700405,-27.923015357219676,-21.38773088410676,-32.48590379475003,-39.955314721377775,-27.54306289425858,-21.245230403572535,-22.22406290130708,-8.821700498154836,0.8715935027219774,-6.94783905383353,-5.906651114793483,3.243086997120932,-2.142579460070923,-3.7898455330604635,12.326528482275528,19.48320131816267,15.69533656763348,21.588547803986142,21.960005860479264,7.9071707731781675,8.09193294459599,20.678785146385067,16.738361384754125,6.456664448940492,4.090377327068136,-6.6699070563269816,-16.6672727586101,-2.7262055053503165,13.202851554988555,12.454917493950013,17.140704952054648,26.288402728951393,19.425362309920708,13.938066297058892,21.576366922162272,18.319266928508657,8.510914139534899,14.683842096927808,17.834624656234595,5.070443767304566,3.160655151928415,11.371293546531405,6.755647553010366,5.12497615883667,17.099517522650313,16.024423034999177,5.223081955066569,10.621679275806521,16.895995604097138,10.704397154553362,15.223555833850607,26.1796677815367,19.50336920008312,13.017867172559184,21.357791157742273,20.90869352237551,13.739562398150085,21.409689760086394,26.678636380853295,18.614242484223062,23.32675460266604,36.70105426712137,32.42088611845873,25.94318866470332,31.11479703895408,25.720367543120233,13.850253393297411,16.615685608012335,14.539878379502841,-3.3048855583353625,-7.220111181683563,3.6155350280309695,5.005043495542523,7.867170198240541,18.69659511864809,13.375457405293478,-0.17785182261240706,4.572006369549146,11.876058316920012,7.70187118231655,12.761736053031061,22.481149131321082,14.597780023375453,6.668754767619408,12.41391030622015,8.649595282584414,-1.195964646552838,5.540440084352961,10.102024840041265,-2.0028338361153466,-6.290620720127961,-2.3355495816854117,-8.604187681696803,-8.098387383407198,7.286838317517318,8.752667443132038,-1.916494563425427,1.1977764482947935,5.713446167523394,0.9123612805701695,7.356957208392054,16.378360708249566,4.54341844419838,-6.904710762272276,-1.2681189814881613,-1.5664244901904654,-6.444169568609682,3.089427716754046,6.146907573070727,-8.695262638540594,-12.225459839530632,-4.312320397997205,-6.692463881734715,-4.801761503320215,8.434967838365953,6.502502987490262,-6.3452287543176045,-5.42180827001291,-5.242582918936098,-16.25994095351465,-13.209508239160765,0.9934664471214134,2.4768446163991804,4.819902758673946,14.77191735939043,6.131603311518485,-12.858077036177093,-13.782788995508792,-11.930223601509464,-20.617931827187647,-19.791816640744162,-17.219460848275137,-32.76386630518115,-41.534313153040834,-27.76031128671902,-17.53192929089026,-13.397371489299278,-0.14076625523601827,2.3697782598821497,-15.118603594062646,-23.49702172700628,-22.39765669950772,-32.7434160910177,-36.83949337230324,-23.980662579762104,-21.413236233525264,-28.11384759829849,-22.391804271753607,-19.590948432411736,-27.963785244144276,-22.330793944275214,-9.863246280760077,-16.136780106654356,-23.091993910309625,-16.648343135393617,-18.510529949290856,-22.683173570257573,-8.096940598033655,3.916106121107582,-0.6232796584014504,1.1403776672270258,5.0097345775003115,-7.5651981860846105,-15.046162055324785,-5.890867768049099,-5.550465182283657,-10.650545232205237,0.6390982799306322,12.956284438683264,18.630855182474715,41.09869328046088,69.57853664079668,77.9817810619748,88.20737277493572,115.75891530025099,132.41257857214904,137.4705045617564,151.37947952370666,149.42170177810817,119.49571619830877,102.80628535215732,102.66149172441511,86.05143298747109,63.41110166408219,40.58583472724505,-13.626543569651682,-86.41599013781206,-134.69866544446785,-165.4353039208571,-196.3910102011747,-217.9137972545281,-243.8081645185818,-291.4431580279494,-328.6430247064072,-332.2568307659874,-326.62926402019434,-320.44104329583257,-305.73954534508954,-301.1917772623284,-306.57272278026403,-288.51311145293,-252.68540647452645,-225.71044111879885,-192.0143372437168,-142.83838277881102,-104.43623942568237,-73.99131368140175,-33.49211701063149,-2.767138693831863,11.226376084893062,37.38732762749745,70.88325007233409,86.47298703847433,98.50052535088311,116.22566765095094,118.80303976939408,116.81016468095723,133.94870910695965,149.69861447332977,150.3905440928384,158.8477740946135,170.69858464106235,167.22519677682737,168.44269146793243,181.60223687320533,179.00774222688216,166.94403054884827,169.00932244812523,168.91671568706843,159.21210237010263,164.02881988399724,175.4317690410839,170.72985370513751,167.59949325268101,175.56623425622683,171.49621976672978,162.30651347036869,168.34302975236213,168.45732629499423,152.23988501181583,147.20361172891654,151.46982178755889,144.68169634845606,142.2555501656262,148.35143497990697,135.66289849501482,112.26750663556172,103.59301572079342,94.3450991194714,77.57825580300103,78.33473806056809,88.27683304118494,83.90953045672099,83.39201414447396,95.03682699431255,92.26665569324601,79.28923375610132,76.00969193208559,63.96621173838639,37.375208501778616,26.607011430308418,28.310510948269904,17.61490776931838,8.388460213006098,8.939894451015563,-3.6374824671314254,-19.733756243072893,-15.389200963122137,-11.246683243742297,-19.334480622406605,-15.202808832432392,-4.463684377267768,-6.814038869060187,-2.4240440348710393,14.419240967619855,14.006235026135208,1.0127660003963261,-1.9192731069540212,-10.794460573601068,-31.00464962879645,-36.64035043526484,-37.72595897235292,-58.27694989741903,-75.68373817659702,-74.90703542378189,-77.87455519725421,-80.33329029363026,-67.6956616850602,-63.84048609004722,-75.62183838192952,-74.02738083994898,-65.06212254340329,-71.73092906182242,-76.280223062239,-69.37762265805813,-73.66150573782683,-81.39688693899313,-74.16271268262422,-74.58801480091626,-90.35183672416981,-93.04493441423816,-87.66370746156485,-94.62318340435532,-94.4687005650117,-80.07207265935816,-79.10686012617606,-86.35169936756608,-79.73244881025197,-76.36065195226578,-82.91253490579669,-73.2692240826614,-55.56071003000597,-53.860631162138105,-50.522532605165765,-37.56046490697773,-39.741600988478986,-48.74479446859216,-42.70777299385662,-41.10934985818228,-52.91749997938537,-54.26937879963888,-51.19632312918814,-60.33322367247554,-59.02242965523861,-41.19991135028002,-37.669154393075175,-44.593740534413016,-39.95369832019962,-40.1891452400166,-50.93767128697629,-47.71534069692189,-40.11059506609143,-48.89395568883186,-53.036929030365535,-44.146097033784564,-47.20477308515166,-55.67658970036372,-49.337098164970456,-45.835066159580236,-52.47477347155505,-46.67141207673028,-37.478051747712826,-44.938831576270395,-47.160941463269154,-34.445151445698485,-32.27428785013562,-34.93187406028945,-23.638066889977207,-19.091888117619447,-28.015530007209748,-23.66255610312485,-13.357502899828575,-18.61009020191726,-20.645300939249935,-11.79883767236025,-16.470826055120405,-26.516680129317596,-19.76484014163416,-14.453207679218282,-19.110773857419584,-11.10144951281103,-0.8172152493520186,-9.673196666308757,-15.252431965564218,-6.220484114217121,-5.1609598893896855,-5.437935658216922,8.410612567981167,13.0917180265427,1.9411178833403313,1.481727312668229,6.082887253622341,-0.3087599193385402,3.7684304377952493,21.960197280783554,24.628693562848056,16.801020935897846,18.423566883376516,13.31396233438631,-0.022050872942879884,5.636519862304603,19.170444147014774,15.719386921176236,13.473552916669234,21.014201938013247,15.817504516815585,8.138624088993415,19.060399756778526,27.626526736780555,24.69815742616411,33.14089206286547,43.858998164031355,37.15331093751746,33.19730960389711,39.035078974661445,31.60334848177395,20.952486626292654,26.4281474502291,27.210947451784033,16.58290216223034,18.028834528102834,22.84768764929091,13.907751434128272,12.43706714513851,23.667495683167388,22.0398159257697,15.583238358740612,23.122778366445303,25.435928942722565,17.717159534018734,22.76194568835354,29.966165728165784,21.991325787112846,20.1805687511629,29.228225074171913,22.792010496628915,7.528315329577747,3.2203772268269883,-3.9632072084036656,-12.85953491001668,1.7243518161409277,24.844867931373166,28.954360712121677,28.98803596741815,33.9032917512959,27.073251684538338,21.146006592470307,33.64200777866485,39.75222120392904,28.125700406810246,22.900901791980043,20.67865806868747,7.926259558786924,6.358263197837,18.70352672667442,16.752690976584265,9.280131845146961,17.158058755819813,21.908092705089317,19.06899265230304,31.30738741285419,45.11950771220276,39.63378413593959,35.923617482577555,40.32295088370254,29.67266242674008,16.188264573977058,21.436099823819916,24.697302622346054,18.11550294152572,22.90733764986021,25.831779415705466,7.184357424152627,-8.027280426272311,-7.579483500939153,-11.204240236660347,-10.169410817376873,7.7332991841470085,15.110396353646518,5.155646535507893,6.772810678874707,16.588638190173064,17.44652099640953,25.47917603936213,40.08301371231518,34.969689191876626,23.08843201775852,26.769490863545286,26.552808537224067,17.76133392001526,24.121822308869888,33.836827303754845,27.71040033028754,26.37264094226628,33.563299099333676,25.53441736096791,15.304562109797399,22.309190796871174,23.859591247976546,13.978748749019482,16.88135583424308,22.09742521302648,12.435548041673481,10.662467203261262,21.23813997173792,18.903058236916177,14.015589381080634,24.517288143738977,28.06506270983232,19.231515969987747,22.524868383673635,28.256078417971004,19.333307084150903,17.78167196902862,28.017894468710033,24.45401202895623,16.2972342055316,21.91967163075022,20.96765678776202,8.423986228424766,8.122040403385002,10.902062429668751,0.031954256710329254,-3.218452248047471,5.2723704446048565,0.42104802566653365,-8.238841863475733,-2.2542529199988808,-2.158321211077548,-13.59291421489291,-13.780369939863926,-12.727306380463109,-25.827770880142765,-29.433478146175155,-19.337208530654067,-21.688794321079538,-27.586826294375435,-19.454919321762965,-17.460492019219885,-25.45471012001707,-19.92458135016847,-12.057164736090968,-20.24033163452052,-23.983911981670573,-19.262436196178548,-28.609123777175366,-38.658742970002635,-30.88103283756614,-27.89210014363633,-35.682473688712776,-31.607523668883868,-25.27879387798598,-31.20497327663479,-28.053987052456577,-14.895287385341089,-17.808309442722145,-26.2741164407708,-21.60427242929879,-22.548189593610218,-31.4496016849227,-24.97173631660492,-15.873910115830792,-23.216649169836323,-25.23274990139079,-16.23191037017444,-19.213938823206654,-23.120052967142374,-12.051621572172191,-10.802884148521054,-24.134892474509968,-24.442807598025702,-19.181828156255722,-24.827219194815562,-20.09038348030349,-3.7159138304296775,-5.176591745504291,-16.26163407312786,-16.474664876248,-22.084644139489114,-32.97399500803141,-23.53390126037703,-7.720196548141229,-8.467635373714355,-6.819914630915472,2.768212749017089,-0.8564624019873301,-6.478465672282783,0.9426357973397934,-0.7351732933080042,-13.786755472059161,-12.849381733884844,-8.145270568686781,-17.177161878599687,-20.4131771674963,-15.40232713200183,-23.450692081933912,-29.779020424556137,-17.83318541476146,-12.149656844902427,-17.728907412661773,-11.97551209087148,-6.725888343282955,-16.237461435928868,-16.26582956876099,-4.5354427673085596,-6.95326097386468,-12.820537993353186,-6.885019008621055,-12.529876016542762,-31.239546103133545,-36.35638395482652,-37.562146292408514,-48.49672121462674,-44.75810972714024,-25.0081694698208,-18.18486372628714,-17.541885964512353,-8.265032029312165,-9.681519103639735,-19.539408767847757,-10.40092310286979,4.551237999718729,3.9246730566458305,7.27540010088552,19.435973324361616,18.733520113907808,16.54721980067268,27.29506986756018,26.928698722811554,12.692046204135815,11.454839265806442,15.164910259959026,9.203911627867006,15.055450614409585,33.54277973526178,36.850219685169364,31.223215116930845,31.46186517484859,20.74048433093984,2.8120702672632634,4.870473232126972,14.843494211023183,11.157252575783657,9.09501251869251,11.50687812785765,0.4248855938292202,-8.159472988857816,4.369788390517248,15.807121408113868,16.761240539851485,22.2254819861059,18.262269407786615,-5.2471830705859555,-16.33827563202861,-4.875462174264291,4.093409524194959,11.632382079036525,22.70478155028024,14.143014687850169,-8.059383239766188,-10.885462827225751,-2.7148874730183508,-2.9247087511259107,4.165004919667507,17.70311491480574,15.092158949955977,9.756535460228097,16.96301450212818,13.797026425900853,-0.7893008735781297,-0.4714033023320199,5.168314365870637,0.15798346361725768,2.9510491257218314,12.532750132931742,5.675731527049395,-3.3893905441469236,2.824820022111239,2.7433956173962795,-7.0203245553164475,-3.3385097148587755,4.169803510796481,1.3609264203797362,7.751784300525531,21.382653259985794,16.514490804620163,5.996204048597513,8.567688054244847,5.348067195116679,-4.621185676910448,0.6546101705461793,7.133216120735462,0.1079781595230136,2.8198948497925995,15.471210246868353,12.942877581174947,6.529317054882501,10.340820633347438,4.053968095403005,-9.732275546991552,-5.720070156964232,2.7244930467575568,-1.885118378192252,-0.4384101201326136,7.082739349264725,-0.7451402461921592,-9.090177635639154,-2.1729766101816073,-0.9907869053646067,-6.46130771855066,2.321459032451836,10.95476734802011,5.116937780156469,7.116638999695305,17.083878997114603,11.618702920899068,3.42903433344721,6.908910035485312,2.3516862398058422,-7.024488003431403,1.3803231554118573,10.712378923748254,5.055324810171305,6.8391412790621695,16.028710775173078,10.369525451918,3.9585741518445103,9.335961047267253,3.328305616821953,-12.470712791347415,-13.94829109574087,-13.746221088373417,-24.028853355057695,-21.591749598640096,-8.258084391552693,-9.907579183205165,-14.915153195525862,-8.161512249770844,-7.8287114894061,-10.304575236620316,6.11777970267473,22.379043048119403,18.808329253471893,15.557104864077157,14.552014725484302,-2.7883654167061875,-19.396843638585022,-19.94879116815823,-26.934170679299353,-40.09954623956884,-34.86124300178115,-24.061421893246767,-23.773541993350793,-14.118499066073577,2.4583980485730113,0.4495703826354376,-6.978913494940732,-2.2928727978416967,-3.263734548828633,-8.739268070965531,1.7797172619667103,11.811359070290752,5.518093052074941,5.7528768662872665,14.456603923994946,10.27672397488246,7.173196479063237,17.723815763714608,18.820495583343465,13.438041156923592,25.639515135051415,38.25023815873934,35.44684012098289,39.59837197386466,46.77282569094249,31.224877281371498,10.089280995312867,2.3973746358412265,-10.192049766899528,-22.907993445459972,-12.389766359583795,1.5578340390587182,0.2463397389056139,6.68303447112886,21.240965591050717,20.1021317841502,16.67718762539895,23.957411740998598,18.94151513957433,5.960127116968724,12.303964561698889,22.53203679196969,19.951485937783318,26.386716185676256,39.108040462344405,33.43880710052884,24.670005179146187,26.679334705296135,15.649547337858262,-5.531237451816562,-10.079538419757434,-10.980055912395764,-21.722436050165246,-19.58692714516574,-7.369468009040111,-9.746468518180036,-12.488798983281153,-2.3247852565267557,-2.097749867328591,-9.869919074883825,-3.2408812903975788,1.4254727969957757,-8.484025501535962,-7.929464407850791,1.5074282266736447,-3.3463302141498357,-7.090433244914047,1.72839697412103,-1.193605885008275,-10.735156275682256,-2.055431096674929,6.024116307436837,-1.5955548828577957,-0.4630163138454906,7.11027130152875,-1.0697889529684153,-6.158518224748521,4.796013165057244,5.222297011380526,-2.9222004814269837,3.699381733636278,6.861647265022193,-6.312110735666043,-7.700854999515406,2.7729811273087894,0.12339588105009947,-2.4293494387952346,5.754066697204598,0.4419494125329413,-12.143621371839842,-4.797553696912251,4.954332631708212,-0.30639833118599613,1.862118989761746,10.776831182240134,5.169719231874209,2.637222987488606,15.128662433922422,14.907600523123325,3.8893133241014057,8.309600407321835,12.7011538493721,3.3062619211817803,3.9450237248507927,11.344608494232014,3.1659346708934915,-2.042825177324006,7.294269416967827,4.104017925550577,-8.608609402057976,-5.536226406903539,-1.4947041768004465,-8.242853488696344,-3.98593795510034,3.97770535809217,-7.656885345157407,-18.876932109124866,-15.970059576624863,-23.05437165424279,-35.20401966973148,-29.37811917142787,-23.860970253341062,-29.485681488840232,-21.33348235992395,-6.218632601202586,-8.726760302203651,-10.689234307140389,-0.9262599979767385,-4.562574072975607,-15.798095892652448,-11.711193121606822,-12.334535315404514,-28.43356705825985,-31.24978428644085,-23.260102494991166,-27.22496534523008,-25.1704499996275,-7.775154891172216,-3.1390935814107745,-7.4211811667883465,1.9152125874594264,5.1601701893462035,-7.56614670103408,-6.600730305704312,5.498852848029368,4.460665714618294,5.832006355017742,16.79648673346957,9.493667051117548,-7.412840572362346,-4.815263774713009,-0.7498635800749982,-9.339756413237716,-6.6858148903142585,1.3042936282390647,-7.613279398185208,-10.818245204373433,4.978732212857813,9.959383157687164,3.9578402183653196,9.298277676176932,8.030904660440733,-8.209532449384707,-8.154326742921707,4.092175153369869,0.5666568085424522,-2.1002240946141795,8.813695918458691,10.400446811109873,14.014250967639166,45.00138638721184,76.44970161581232,91.35452527031099,115.74586893679614,141.20759977698893,139.51245537951215,127.4474388407124,114.57749197536333,77.43791549954193,31.304722348422803,7.154553454802432,-15.950095794920177,-51.67356933058496,-72.92463254020316,-85.37629106157706,-111.68521925826315,-129.40708374757736,-127.25490275325745,-132.4803338478627,-138.98042060618758,-125.62803164346944,-115.69948785548846,-118.85321473524957,-104.6781359392028,-78.56167447232923,-67.19170470287233,-55.42947833777157,-36.823245077538694,-38.59892170824392,-51.11470863173999,-46.30915903555706,-40.47752230833662,-43.04157522530096,-29.993080287584363,-12.387999049123628,-16.724309546280836,-21.545116543675903,-12.487775869663402,-13.474005459000683,-18.28222286159776,-7.104380257148239,-2.7631434646998345,-13.274568964585807,-8.53853897325687,4.936512073822426,1.9820578781183245,1.6224541668726555,13.536222663686441,11.702110900530553,4.887134767389414,16.73474215200903,25.26692099084432,19.40516692309928,25.344960153009694,35.957344390620236,29.263985343469365,27.080602882941115,38.22996505498524,33.97192183431368,21.51676337503259,25.384972141496505,27.008315645559225,19.33382500859588,27.781411862068925,38.69537678723797,26.945057340428328,18.11088151854812,25.337270362332415,22.923965973443934,19.21034858607817,33.66915204061761,40.18979577350584,30.550968402169673,34.91168509833404,44.34580062867141,35.15468399095029,29.661348240581844,35.99627796609432,26.68490460101689,11.905850300297963,14.877416402991082,13.584770209431353,1.475690955935967,7.578524916199641,21.27815634219225,17.35710084034988,16.547372890915344,25.906452302638613,18.622440329088825,7.235396299281596,16.33395411180658,21.344743371629594,10.355619559834025,10.443696612628665,14.884339216887973,2.916673618021113,-1.7255070506977441,9.614734107865404,6.945061704309044,-2.154675781091073,6.716992393057829,11.854718902600565,3.251033739222645,7.936287088361933,16.694904371146585,6.6464538929193795,2.230500428165953,13.18338403953942,10.297501891318996,2.6578157943860194,14.394359962427135,21.46902204630858,13.69137961535398,19.60443237263677,29.462814343841725,18.951714521889897,12.258801464530102,20.41011622195994,16.293656340040403,8.176836599722668,16.777846152992307,17.47849206959984,1.8733025241595174,0.23737887030315363,6.528658537457556,-1.1077371323058882,-2.51843217686975,7.981051228390026,3.3608450916546917,-4.922410673998348,5.651209688736254,10.192635622209139,-1.2848442082520206,-1.350622809527974,1.6120371594351735,-11.821102436662688,-15.368418869091167,-1.491461187151251,-1.4928720225860932,-8.070740530592401,-0.05900903825667747,-0.5157968982982402,-14.58062885720516,-11.341287026288589,-0.21569285824336326,-6.535453207122533,-9.786008982589658,-0.32341735002330196,-3.462170817068737,-9.549949191815626,2.635760352338874,7.856257069166535,-4.001240849126372,-4.0388484451385605,1.7284526741613644,-7.182001831230188,-9.100428359367964,1.9026036428701172,-1.8883290650981128,-10.339433352393945,-2.1827882059932797,0.2646633291822188,-8.42483058377006,-0.7800748529641917,11.443133650626404,4.846249005433151,0.6799808495244419,5.224925976412999,-6.784347710245134,-21.306269017895605,-14.703254272291531,-10.499375400770356,-16.703921760718963,-7.375583551690225,4.433524862209522,-4.784242531734972,-10.769993193132773,-4.02263336143719,-10.91333571169385,-21.220352741807563,-13.22585322051307,-10.33047267945509,-19.81883616837871,-14.232684154423318,-4.922531036420783,-14.23026134468811,-17.53044872257175,-6.069117342440969,-7.38686704384144,-12.95133766496948,-3.1178876319109037,-1.139770398782049,-12.525393085214212,-9.637108991162824,-4.04010304725478,-16.763943452909412,-21.778327717368914,-10.20868953260835,-10.373754404165572,-14.510679938045987,-3.7876831685230767,-1.9881949486418657,-13.04242432250021,-6.641617379455264,6.513734498873814,3.9769872251569294,6.693939196668582,17.29240314576864,7.560126266755701,-10.051953687223548,-12.630759012712637,-20.202110199587473,-36.152208355092135,-32.93554827479113,-22.50320669231627,-26.609389547735606,-22.57590961249415,-7.323726482209399,-11.20586104490031,-22.390533232110432,-17.392059151325547,-17.615115679563317,-27.93523364792478,-22.001471992586218,-13.08604599692316,-23.462715037391604,-29.68330331433571,-24.060613673904946,-30.754026638733773,-36.647735233764884,-21.658106291082433,-12.035506908256906,-16.688868033703603,-10.306573196628825,-4.282394347907147,-16.022428950188782,-16.904351389179116,-0.4077216235146013,3.5093339062060087,3.785826558084114,17.689623200890487,18.99498058350451,4.9159665655041636,7.918556105660474,17.57502549065625,11.199341827654736,10.793426504058818,20.639331225537376,14.367536436546487,5.300329668048255,12.727149484164315,11.370278138079751,-2.668747570897917,0.19151761823978575,9.038557698532268,2.723036920491641,3.2775926787930074,13.661712017534065,7.20282545038816,-1.163169411783822,8.419809545587654,8.714278501725529,-4.8694736422039195,-1.5668738518441718,8.213716568102255,3.196669174296027,5.0337131578422545,16.289337210783906,9.316370560763826,-1.8537104076431223,4.880628877964002,4.815703584515008,-8.398920616655216,-6.314498466248802,1.0945195879127252,-6.667667792796447,-7.432310013321196,2.378757912759237,-3.2140465949116224,-8.135152756983283,9.0621311101191,20.629707432057646,18.43016007919283,28.39840376167826,37.18231108132285,25.604870764725135,19.894097570216154,24.450483945378082,12.436534036747373,-0.6575504762677453,6.322533816274537,7.464864688306546,-3.2627399860905966,0.3794662098455204,6.1517517995032085,-3.9800237975675765,-4.606012497046029,9.418855612828882,10.968840305861384,8.350086230333794,17.321554700860002,16.05648474693956,4.509515097779131,11.905122299390372,25.88013754433996,23.165576836270873,23.36354164963438,30.75506364364448,21.560818012037693,9.763240896171993,14.058616654083314,10.431927985372418,-2.97640275266971,3.4883554050940426,17.638118899832925,16.084286313341075,18.35464708950907,27.846325333157772,19.824407202781572,9.419958879327709,17.653902534083368,20.507133446708387,13.387002671454415,22.662856838495888,34.16510990835877,25.928033536434135,21.21028114241364,26.68573654211587,20.813343705495125,18.813595492643177,35.04441701441593,37.70007370006981,20.034321651517757,11.974538436030429,6.827345494823453,-9.13702460252147,-10.177650964957625,4.229405103774908,3.7831694189794263,0.8293478390748088,14.059356540227343,17.221756147951854,6.575556115994956,11.496311270611592,19.50052951761645,9.76428201356165,6.3595385825853015,12.739886698870952,1.9268015197881958,-11.450456833800038,-7.5888352174456575,-11.023281366678036,-23.68338678064917,-17.259762450319748,-5.668533535302149,-10.457516257695062,-10.564233547636213,-3.732479031911921,-13.686348797262195,-23.86506656134403,-15.436160858579768,-14.727298936027443,-26.231679948407066,-22.975097460157016,-17.20646668028648,-27.75771268984153,-31.244194162429494,-24.00405919114663,-30.36009943826876,-35.262615942309246,-21.34616209244913,-16.246694378045145,-24.323987508645743,-17.709593559099293,-7.480069340810694,-10.952148953118792,-6.927339488542705,1.771907386018552,-11.978821337005337,-27.485799271382156,-18.77282941373065,-9.249492564302708,-6.650993922322917,6.519151027853947,9.92654823989013,-10.363797717870307,-18.677560833270668,-7.526323025124388,-7.634438719990617,-11.911904009380699,-5.640627873239785,-11.264911042584417,-25.816484360579082,-19.724090972846636,-7.974687122986742,-11.292628762632834,-6.583167292964531,7.893215871118118,4.513502783810845,-3.9738594278017834,1.7596019659550097,0.32015006940047996,-8.79273818410395,-0.4598841397529023,8.81335136329137,0.7004193617772962,1.8375280432368757,15.534302527756799,14.476045838084854,10.331531484621477,17.687906282365603,10.360074166335597,-10.57091931800624,-13.549341489976232,-10.343625214745437,-18.52304628771363,-13.6691476980208,3.008885328657499,1.49181358349202,-4.019248889216581,4.8331959289526525,3.660229897712926,-6.78529590919201,1.3915863749493154,12.062841098429015,5.924339009308967,7.278831830484035,17.064986865764947,9.51841163955634,0.9400791878033541,9.226551933927666,9.250756916976362,0.09220775265799741,7.280933796098663,13.75894436223194,1.104442041239344,-4.054292535004423,2.245981627868708,-4.833976062466167,-11.490511853282763,-3.427477800037386,-7.768560878687734,-24.006068530954998,-21.487783177422816,-11.891695933594946,-12.92036705755191,-3.243539428808387,13.455139193457834,7.912201320013775,-4.585441068699449,-4.270962023188693,-12.607553522825317,-26.288889246621107,-16.8393664659214,-1.6859104788554125,-2.983281933469556,0.1526570174623756,8.202885308653045,-0.9742814039688241,-8.29899773450352,3.5143705520424975,7.130222903825668,-0.7947212602579188,5.579654021081522,13.006518308149186,4.243810919485396,1.2873675048777609,4.245120937779063,-9.176412838927185,-19.27960069601208,-8.37660109594182,-5.245495459072261,-14.96309832496216,-13.388893182527948,-13.815063135161775,-27.353984125486114,-24.979579270224605,-8.111431980789568,-6.144486677497883,-5.135567680993983,10.27069005512275,13.717974604720055,4.601526554409508,8.61699937108203,9.918044934957422,-6.7935914436550675,-12.415049986144124,-3.596950383670632,-7.980845249185738,-13.582830102347552,-5.440723240116991,-8.635060676923809,-21.406538900143378,-15.085511002546887,-5.517790501149179,-12.272068833907383,-12.054378586986626,-3.9058404263202173,-11.479501578657569,-17.633189635706827,-6.895123510690875,-7.268504585378463,-20.833658257085002,-20.647702395860087,-19.07943369754398,-29.52413283728437,-25.58058107089778,-9.369106395024778,-10.546850126865378,-13.64571223100576,0.059926052086550996,6.057676801617502,3.9572346065435204,17.774725834038925,28.551559680964637,19.56946119649779,18.507557732684564,26.897567271988585,19.527592652690082,13.034446209385214,23.256758063332466,23.193564104473822,12.850388728545848,18.631750489340828,24.599554622740612,15.735572785095806,18.00284640162417,29.218173293997733,22.58077635549428,15.47431836331555,24.415170228295125,22.420812061641634,7.861342515493412,5.85121488626442,4.201592347270183,-5.907614824350143,3.032818237063446,24.194776567593955,23.38588175679972,13.017084088096004,12.543265959751121,4.431745810305459,-5.855940200698768,4.773239970933437,13.361391274732252,1.133025320726576,-3.0728535663579453,4.105917353533208,-2.2884493442461253,-7.019376683587162,5.1256886303332765,9.094971591746681,5.893157023008515,19.058564116333727,27.10910164624434,11.142315090349577,0.46995572811767183,1.4898143093946303,-6.783430481055069,-7.873916988065011,9.135601146681656,12.72417851049671,1.5013754613500274,2.2479333382474485,2.099787076548347,-8.978331342142098,-2.9950134761949263,15.658648926013637,15.971839686548954,10.648350737250706,16.00300818417594,12.792919161373206,6.466696560104292,18.991528895224924,28.210603421360844,17.6179873496203,14.694669129766114,21.00658431237447,14.260257351141046,11.485772600775034,23.782912249806603,22.376541147697623,9.70234014536673,11.751019877753704,10.945032642949554,-5.792649710413066,-9.896693650071096,-2.1123045624726653,-6.8315486002696675,-5.83139108824259,13.470227865902986,19.038931168389677,8.039508375817116,7.2788195106040545,4.730745008886153,-10.209256772692989,-9.4021456508247,5.188911919814995,4.921645716202555,3.522679073953486,15.643008880217238,16.246594172172642,6.607754679309066,12.430507217421178,17.277030154732813,5.040634013569476,0.9338408965854146,5.362182668522616,-4.137734377504909,-10.002037834652574,0.564733365840068,0.27104415173400564,-10.048351310843916,-6.458467065374195,-5.4466902286936225,-19.77793643619272,-22.230732892236567,-12.903928499633546,-15.403600845336925,-13.495802222094241,2.8545909021934364,3.6363155589544087,-8.814349852360127,-7.374324340832537,-7.363454545098786,-19.720053228540174,-13.845217312538484,9.080862454396954,13.601663972323653,4.90690448196774,-0.06627778126687756,-15.925331132251939,-30.754197250689842,-15.596201318251246,1.9362791552967646,-9.539464560543447,-26.38745955820472,-35.61074445922593,-49.469447755345115,-53.53360670801396,-42.818264206128305,-45.08752976708077,-53.476145340262185,-40.21685753755668,-25.002207636264536,-26.806992085466344,-22.04180331582101,-10.120481781353115,-11.856542262451425,-11.288507555449776,-0.07163208238452068,-4.870085388552534,-17.793323811912117,-10.532425055604593,-1.9275614331190591,-9.3831102938302,-9.567627370953682,-3.3689417080783297,-12.920754225552876,-21.28304601876831,-14.435956892593182,-15.103819515112876,-18.756130960493408,-4.077929560477136,6.084676908511278,-1.5793104963101117,2.2920803844351663,16.816184139996153,17.455142835880114,17.52450120930439,25.790718177278233,18.98982596359363,6.504276532083024,15.132905980624821,24.268565753526744,16.931209232676068,17.864878467378624,25.30081881834976,17.96877308967828,16.93157746458998,33.5509498154104,35.34142990675197,22.276427382464803,20.038438776628,13.992745334871731,-2.502738989924108,-0.025253390792560726,14.007037897758394,11.133134184155342,9.077394626810229,20.911672259681236,19.454164771436517,6.070429062991161,5.24710956004662,4.041291251134717,-5.140655544133676,2.8341467566639262,18.35899382225101,11.922075212302826,2.080980102012472,6.586589141258213,2.89471891772176,-6.49979416343201,0.7240596005274078,6.809497774717693,0.034036131089338895,6.248558249229864,19.82858100080088,14.492816732359508,8.554583843511217,15.204853551161255,7.523944965816754,-10.815909986226846,-12.748445444914864,-11.526629631587353,-16.658740292060735,-5.869572264103148,9.151336006433304,0.6352367507803605,-10.325561014961211,-5.618540823632154,-7.447283440858003,-12.681720083841292,-1.1594491500927786,6.2398544400349385,-2.6745347962099615,-2.036078690591446,3.407259215707553,-9.567472239307552,-20.63206178747413,-14.796258216236517,-15.51291077951027,-19.506733629739653,-7.128372825942138,0.03785813033294305,-9.892413842200973,-8.218914827063587,3.2882561287032828,0.40100867106005733,-0.044965221460120885,13.024380448352423,13.56273650436793,7.806416558153581,21.86428782402667,37.430293619078896,42.05353477441765,62.6813413112595,96.47645541327122,117.86548386821184,136.69050373063897,151.96840275402732,130.12399543310244,79.79484769340658,37.76035655496378,0.21531946653414735,-37.184466905211124,-54.743847850317806,-69.27736211457058,-109.2192098532428,-151.28383356832882,-175.4966229771164,-202.1125294190228,-226.81862859511511,-230.04436704006378,-234.38665742581293,-252.57335748785505,-255.54062995263894,-243.617763962879,-238.66071132592603,-222.689099011659,-185.9477281666393,-158.54697467143333,-141.1109730030338,-112.7842955388112,-92.49030976876857,-89.21999311875393,-71.06665089599883,-39.95047297114054,-22.46669571585962,-4.442496108351457,21.486986274595626,29.135251992503505,29.033071401006126,48.51365223879587,65.79045836903775,65.71575657125582,74.64963745491838,89.60622585812781,87.91832503293595,87.44958640288552,97.37451381452446,92.38862578246001,83.32416166862828,98.59887171354181,116.47410390329584,117.97240937709047,124.29601804954322,130.39869979476947,116.9614033234174,109.25352005698977,120.84532390207212,122.11393920980696,114.19727681197936,119.34333354599434,119.47082567969696,105.11253788720276,103.8381010549198,110.21202017031054,99.02070361716935,89.44454081130424,94.76249043831373,90.50147157767128,81.97293972295108,89.63679877666291,91.55049481064017,78.1550429960083,78.28775184704153,86.6361649337358,78.39904518961876,71.80465040984492,77.33954086500272,69.1652553120497,54.35887444985308,57.20140856681849,57.95114824675776,45.79011085946719,48.040424947072644,59.14092529688307,52.90060333003677,45.74490047840132,49.294859344066865,40.07131516707714,24.91731332723679,26.737053533996242,25.341318549092474,9.343014067334138,5.9935720964213015,12.429187691312727,6.997696150988239,7.123954973394811,20.2845357843804,19.216172701210624,9.126984467807464,12.204912284792597,10.647518553439994,-3.891883441683362,-5.3522886784804475,0.8942348777542284,-6.721681521339937,-9.241008655082425,1.2709616206766432,-3.305305235866218,-17.88176985064638,-19.66825655019223,-25.509017756710588,-40.843028945120295,-37.55590714332304,-24.52305778815457,-28.447117468124077,-31.040079461865883,-22.281645256199106,-28.099030740817398,-40.67815948209911,-36.29824619899654,-34.897246446913655,-45.31416403146467,-39.96545606455307,-26.32782218194994,-29.568995665914944,-31.603483092434363,-22.825777274779256,-27.98502206966758,-38.99417024858879,-33.24333477670987,-32.031283220817656,-46.48946357503199,-49.380613102268626,-43.80548262757383,-50.4244902732505,-50.78831571735064,-38.130014848135595,-40.89581145535827,-52.44850520423305,-48.467134979556405,-47.24336315128858,-56.7653747802174,-49.04585039158699,-31.07334160509498,-29.032798017081195,-27.845411500303396,-20.69682677965136,-31.10724475572202,-44.7480697734646,-34.971229383894496,-26.234149776283544,-34.496816885415605,-35.76683491949515,-34.622382300411125,-47.93157019465011,-51.51256399264647,-37.81644782954013,-37.46207930707333,-44.927523539594475,-37.16315364878676,-34.96148018770559,-47.39229783582458,-45.23849655451098,-33.54971134895858,-34.780020786254184,-29.72091163889334,-12.51961189658304,-13.77842877029872,-26.60767157265865,-24.72930884846913,-25.661386353517642,-38.052728206152814,-35.14916923056372,-25.330319539808322,-33.99088223528813,-40.935662382993115,-32.69611652887123,-32.23325884829738,-33.87261504379373,-19.733118330560274,-14.391406167588027,-28.268312129397728,-30.68800185492323,-21.30882123090759,-20.39399640622523,-14.12854818011184,-0.08403418413539843,-5.218547587308423,-19.794532658049214,-18.317133444460712,-17.452839865159333,-24.98299179125578,-17.32134696218155,-5.5138765357012005,-14.405524778646377,-24.27457646914425,-22.690897761170653,-29.81879951474644,-35.7450931111521,-22.03213272064636,-14.637624295222611,-24.09786852025815,-21.09996214248214,-9.068567515033978,-9.914713628036354,-7.211988829394333,4.961017979898686,1.5077824837120168,-7.684305304612265,-0.1610412711925937,1.8245376284521335,-11.85726121029386,-14.16254778663295,-10.11854346002588,-19.332598254520278,-21.365891328207905,-9.45458248517867,-11.005947395395166,-18.16285351398259,-8.029061659772777,-0.9478321794521194,-5.8938404109140965,3.6344812332677385,19.393426147448444,18.049585989094304,20.086283723967057,34.45220888281014,33.4764247493258,22.78009082842418,25.920484208400204,26.49434566896979,16.814977325237706,21.51945670832237,31.318391347373254,21.638783782526936,13.754769396829936,22.719964419016772,25.524792224598443,25.57982844426078,39.38469927469045,43.87521690735988,30.60932224291417,28.12216331850128,31.80918847496814,20.717023804158345,14.865884654825892,23.38531367768069,20.31232593604024,13.262497305900332,25.551745891167023,36.48737301656149,34.209970900462494,41.44048535922742,48.4802089201599,35.016128332737836,26.931249050440346,35.83757137306281,33.23428803513624,22.511609659471645,24.092653108009777,21.61649577319021,12.024706371112874,20.854217063149314,34.190573216045614,26.159262726374894,18.603532728360292,24.079356147328408,21.702812081016727,20.491192319735013,35.95896002673262,41.68377499706868,29.397719286257008,26.936410426190417,28.472596992783206,16.47095134852102,14.342042803434103,29.35690972996754,32.233752213054416,27.082477952255836,33.44409319731539,31.90469710369743,17.388217404888024,17.946641863792827,25.306678772494568,17.012304694395198,13.347200200728421,22.31968713700169,17.50379167210016,6.75312811984313,12.250999163229913,15.116042711243306,9.216526252849965,19.60592741743243,33.91390176808786,26.49001118680679,16.80621316488474,16.521124193259194,6.695772527697439,-0.6091740593528874,13.401627114730863,21.368638325431725,8.271437762633333,-1.1473786229565874,-7.1894268482342465,-21.790386481970266,-21.987552702369314,-5.3948086517747225,-5.909117097445069,-18.372937612876882,-17.455160620084634,-17.55103994491022,-22.79412217107928,-8.89238589280994,9.112655319835188,3.4700793862726567,-4.389626010736195,0.1111313851800304,-3.9665763942085004,-8.538291107564895,3.3345676078595154,5.938666451805803,-7.9736711251918555,-7.0324712209058635,4.312343946855982,2.897862572919842,2.0228001153683683,4.914268503923196,-9.40791217884139,-24.77295840602466,-16.54953640519056,-6.776078744749116,-8.022879372748523,-0.06872742197119441,7.004999631098931,-5.169386092435962,-12.058963682678659,-3.2070337931652317,-3.399927703317279,-6.279068960918935,4.985351619064005,7.507681236667537,-3.9123909927432523,-0.46925273984567717,9.107897939351664,1.4058000244506363,-5.702158101082267,-5.711158098070831,-19.701350846170843,-32.511483029023594,-22.68109572199942,-15.99293533705055,-23.995315020108492,-21.532891921328613,-14.071889335172283,-18.105385353712453,-12.808255590615879,4.556034063218933,4.245601474501633,-6.330179595440464,-4.343108993832029,-6.096885238348421,-16.131238042522718,-10.764943029587776,-2.629458017570332,-14.202393505827853,-23.885768799953354,-21.920055230528007,-29.07407916894491,-33.88052025493268,-20.197553044343515,-15.133655879122506,-26.399413483244803,-25.446234228954726,-17.99576999113149,-21.942166736329344,-15.91633009016076,3.893137862315239,6.84637584323779,-0.07216219605537644,5.855437967775698,5.827490037813875,-4.822788204282581,2.0997733785137713,15.729505136470879,10.385351154523647,6.08749616388544,13.657919239358108,10.659847739628267,5.65892421092874,16.16077670155723,18.129717830786802,4.283747080047446,3.094954081491301,8.948895169780677,1.7305509030525266,0.045565338697398206,8.865821862659487,2.6207376044942654,-8.605651411433803,-3.396575732761554,-2.096104092756842,-11.096056844714791,-5.525564736557228,3.436821291373371,-6.068338281712527,-11.689152407518588,-4.042608697142219,-7.368258800156118,-13.04657852820322,-2.918747981742702,-0.258876805806395,-11.395479882314893,-9.099287223366055,-2.4173476971406216,-11.790804736393184,-14.645710853910892,-3.5027640569522562,-5.422587465616066,-13.458233474801439,-9.173808819756108,-13.052101250360145,-26.859761596039917,-20.687682564747647,-5.457182163595023,-6.918054854569706,-7.494820061313356,-0.3571317198402433,-8.48540132659605,-19.635518626735482,-11.826055989025686,-6.0867118925591495,-9.689660035199381,1.1860332573098242,14.128206992907566,6.415553335906814,0.12068952046024206,5.882348959652338,1.9607066035972591,-2.1743918886052844,10.720396893234376,16.66627440711201,8.230042167982209,11.973648364182344,20.14764005790709,11.959845684522579,6.607313611588584,10.937863218324985,2.059572580747726,-7.970445195313189,3.0761767653187357,13.139186149174165,10.604491729628752,15.771370485879148,19.202359107959012,5.931791402893359,2.9330344703051923,18.631219682319575,24.327949020521164,23.82114042800269,33.90693182422134,33.88051426978414,20.74178470650517,23.27883826973345,31.776582082618848,23.840905140071335,18.889459986750712,21.58556657661782,7.002989413200377,-10.840510433269284,-7.366976211861699,-2.288192867587174,-3.990850092992572,6.578729234015415,14.663110025302586,2.428576774749268,-3.3495100785537937,6.812545123727888,8.120325054017215,7.389569734796434,19.836712738605403,22.642843051037552,11.792840369681363,15.081222570600433,23.98612707091835,18.55853781025528,19.555075832841247,31.671539837361284,26.840081293963053,14.285278875167908,16.929604645801195,16.26563120734561,6.969247819975731,13.205087930917614,21.982318250721523,10.977586749404573,3.2950750198250534,9.108154562960696,5.0785406799892945,-0.4661168331055059,8.410400382933727,7.093055144345929,-9.80410923196926,-12.398206157893704,-5.523958007754695,-7.926924221385361,-1.8245406222554745,12.240229893534623,2.9021247520729556,-19.012660099975122,-25.768174165464625,-31.728276904917582,-41.10012655958848,-31.960100452553693,-20.9677808678513,-32.07354385252386,-41.453238154211995,-38.65238404336009,-47.41194784378729,-58.32659163663563,-51.44500884040074,-46.541316084273035,-48.60503657719818,-34.69987639217532,-19.730799463757215,-26.840078518384704,-33.013083088348566,-26.83668394099091,-29.169795062286976,-30.738650096818994,-16.70540277121272,-12.645020941929525,-23.972302447759823,-22.48220047436646,-17.202832555472412,-27.358748320512852,-29.09121226194876,-15.026351363632669,-11.138605314447979,-9.72712528408002,3.858758502995803,3.8818133487311592,-12.947611235373742,-13.897889546343311,-3.904801435955187,-3.242570709229933,4.963853732982897,22.075223713131773,21.274849305414136,13.270726874426447,19.83975569506202,21.902501859801983,13.736856763197032,18.939969090707827,26.146686579303182,15.172645476449228,8.086659262109135,12.386242483308873,4.482326803489876,-5.44230693396979,0.7059316349685467,0.8776164653971639,-9.498897266104835,-4.793606884615009,4.185908070534431,-1.9087077726276376,0.0907253098184635,17.02579092361637,21.499952086130268,18.927840531918314,25.946538332881506,21.933643072716347,4.842933699134006,4.7335116380823505,13.514724604283469,8.310704360042592,5.770588760059358,10.430870194111328,-0.8699345654896344,-16.246399237047466,-14.273012384104952,-14.262029795836343,-21.959196600669113,-13.4208868510823,0.4230738810805921,-1.464459290802027,1.4249830840181625,16.493960273404358,20.32200595558705,21.367394355202755,33.85335691620113,30.81826504240439,7.867095826329699,-0.4210148953404633,4.301286794250164,2.5537067840870873,8.753421627513173,20.72866202107939,11.228415558911998,-5.404768166339286,-5.227714585721267,-7.817544847056427,-18.164979686497066,-11.722091166156897,0.747963506598734,0.12148496907296691,6.848060566335282,24.369774874084143,26.94269847589568,23.10206337436998,27.89364879580747,20.561638923936677,2.858304407823722,4.690467232567545,15.982812893026022,14.382955255658597,15.963839920819101,24.436467644894165,18.03420520356954,8.400912308872844,11.98704861602275,6.125061153177093,-10.572729777962772,-8.47528554055187,2.650316399950294,0.7425076840828857,3.2205061025068193,13.744990184901063,10.076120900996653,4.642641565757534,13.795580315747362,13.000456733142462,-1.8378049986798937,-2.7772274743973386,0.7727896455493235,-11.79677748915376,-20.039713387255652,-17.442405148192364,-26.611301636272803,-34.70651325025766,-22.67734764209704,-16.06951311726344,-23.12935613648027,-17.68375283584283,-8.457023197794898,-14.659657253604369,-15.296772866494374,-5.55224833157272,-10.406613372673577,-19.20932808187034,-12.525633039923214,-10.960470683456771,-20.045648711316854,-16.059752929855268,-8.66022087319239,-15.509959916075355,-15.872906887091432,-6.252072884164688,-11.639261572107461,-20.285535165206074,-11.667917416609386,-6.070279322944211,-9.688437700773434,-1.703241746613041,4.44862853261329,-8.134623658488945,-13.355132778460758,-3.9619307087446205,-5.909519955316549,-11.358432362514485,-3.808682390652659,-4.4636883479209715,-14.794229508786602,-7.033756258019011,6.853815419201958,4.348019700022187,4.860984863641182,13.078067665089865,5.731731093658578,-3.5693461163617295,5.327219286944067,11.358944180426626,12.0056810119918,33.103587509279244,61.83772025077897,75.5300604166697,88.98374091695467,100.57338204331859,86.39345273492182,63.32786297984532,52.875151155111496,31.53832392918443,-7.248555723147268,-39.36048864884922,-73.86113549118308,-122.39564789292223,-157.33852181269805,-176.72491420585862,-210.1067256931301,-244.44646979867642,-254.56934226521605,-257.27483138370343,-257.3907906662527,-237.38000799254195,-217.48207165691633,-217.96238046879364,-210.89517551920179,-186.42534203735246,-169.7978273611987,-154.99203293681973,-128.61082126456765,-112.82086083554817,-107.7358573963197,-84.5334416035339,-53.95667779716099,-37.018166987099384,-15.582348419747843,12.041466213904119,21.576227068916005,27.095314706769212,49.428605308865386,67.0256724491058,74.27805811569515,93.81254865843262,113.58263217725153,117.45936953051687,128.80774358747405,149.71132690206798,153.34362627012592,150.90286699721517,161.2097574945023,163.5876413000506,155.58622151427932,162.8072906117377,174.08953398391412,172.2030790644979,179.7322841286518,197.40427089659755,195.82225420790294,185.6188398136337,186.8847206640131,180.32392359131273,164.73787239679956,164.97195715369435,167.8704861216483,156.3423636520763,155.72253796827547,170.46103073988775,171.50481997422168,164.30338959149304,164.72476159998715,154.79427849507329,137.50673282866998,140.90639234531,149.03059654423447,136.271716607916,123.68467912889977,121.33875310875443,109.74231421992076,100.0889466524738,106.3381184688133,101.48996767644852,80.5005989868643,72.7508034226181,70.6930746490845,56.10277089585004,50.0414986983088,54.75833404712844,43.78702577781607,29.37795519803451,32.05848038722122,31.490924896521555,23.234529115784376,28.891084352266482,33.10539642329203,16.868525130514264,5.029429312704568,5.113426865460422,-5.304387469614485,-15.41951678853102,-11.235916752825627,-18.44416792454155,-40.80255822413294,-50.35540711873038,-53.840268403505604,-65.38491153329717,-63.76558584423117,-50.895487144851344,-55.67808699640017,-64.84793375034597,-57.45002960980829,-55.29884276072791,-62.94081363219728,-56.68837291666756,-47.78604549186411,-51.47658244543851,-46.25635359197379,-35.329147835812336,-49.00248142034942,-72.34357679405466,-77.6563374531036,-79.20222543149339,-81.16140847321681,-67.64461317927372,-58.57025563371561,-70.22040187475746,-73.0321948405691,-60.53857244894712,-59.93491412173486,-62.44337651250174,-51.862558332095034,-49.89223578791948,-58.9775904024806,-56.54220462932483,-56.75213022555412,-74.28350605713402,-81.4770972564919,-73.05322277309571,-76.13279862528597,-82.34198447532003,-74.27001475140007,-71.93617385373395,-78.61548494470551,-71.96388286800953,-65.6720529571936,-76.75195894635218,-79.88793828372442,-69.94548494772943,-73.34642493282371,-80.43084617470683,-73.74946946016652,-74.37351396068796,-84.55144044117725,-79.15866956509109,-69.7414621855081,-73.93774975624646,-70.3600167646762,-56.6372128679822,-57.895098975688796,-61.72965462336188,-49.476444747746214,-44.72864255190692,-54.22645112716847,-54.27116230743211,-52.90818550992938,-61.95216159349872,-57.867536363464396,-42.48308573627894,-46.01485237055931,-56.8652111658277,-52.84369686253345,-51.44863699800175,-55.655745509887936,-44.98555871281847,-35.149731872003365,-42.88033342016941,-41.8750634755428,-27.424451914110527,-26.888765798370933,-31.283790887586413,-24.659765029853393,-28.67109861857707,-43.31771376917925,-41.801273548341825,-36.22935132269815,-44.45656045625453,-44.54935564970334,-33.95622765609903,-37.61353475189737,-43.20965184048221,-32.157879850969124,-25.537493514739875,-26.56802048226486,-12.479700508551499,1.8262071912527902,-3.194508181366393,-4.486772082101179,3.7807688762746117,-1.856289816684301,-9.866932036547103,-2.3493740211498637,-1.2661319795784383,-10.338229604986664,-5.01126669943962,2.2753358471268403,-7.071533922296198,-10.301330680646755,-1.7594128831856937,-3.477076077487541,-2.4581883854674893,17.208163006774676,29.598659685215786,27.778442028923266,33.512232575379414,35.108710709569166,20.06973954910269,15.250950241228148,22.590605808910034,13.410419181023562,-1.9587504881251503,-4.859553744756748,-13.623175496223316,-25.464291818062478,-13.919753838424775,4.22212599798425,5.496404600083256,8.877324719871424,17.413541885128765,9.941930823740199,2.4806178863980275,12.392868036974269,14.254492860469806,2.5505693180956954,1.759988125524196,3.5891015272013407,-4.340073157624312,0.22308980129194023,15.277050516308313,12.599054037661881,4.68790812234162,11.167663440311523,13.240914698574274,10.064923802767499,22.721517124867212,34.461637243468154,27.804611954400432,26.63461493100037,36.05890886240908,35.30787104087584,36.610071267793444,52.05978118895308,55.86191656880101,45.05400542259663,44.38873395544974,43.64197107198693,29.99039876291208,28.46220173267295,41.234422761377644,42.854903648324466,43.62987621608815,55.08258938255406,51.029198733518285,32.3422774289418,29.68439630903124,34.180359860622225,29.50199249209015,35.32674650755049,48.775871830722664,43.746500240342485,36.713599182243755,47.39184528290612,51.70183980423722,43.598346701392536,44.22054860844294,41.05636814839328,22.326509086682933,16.502607455323968,26.09053284429574,22.12235718993717,14.201609210736759,19.09933759367302,16.494416833366536,7.565879002074283,17.414754428982018,30.07766190456869,26.33669896529888,29.497484176050623,42.03624209277719,38.440887451764986,31.69631021883844,39.503048748494535,40.00537215813519,32.123200893138815,39.89469432545287,48.47571240420608,39.731087284510885,36.14256037347262,41.120261600730565,32.28059674432913,23.16839088427363,30.282632112041856,30.96813666347843,21.33311445176368,23.125121251890988,24.991765940860873,13.361888909816555,10.90481364324799,19.450713700118797,14.503817929049458,7.365455784365807,14.28440009682124,14.28285588274419,7.077815955773188,16.838863147471233,28.96971617371312,25.8529915344485,28.217232835848097,35.029819826723994,23.246875138626386,10.685497817058973,16.454579650054047,17.50754270887461,8.984133677226652,10.771684640987145,9.085105248740028,-8.826755598011463,-15.178663196096227,-4.446337835150758,-2.5575835611250337,-1.6895158293373902,11.952009900586354,15.732922834281633,8.426088273598786,14.830751696751811,20.939804210287353,8.225354519832306,-0.25643450389059896,1.974148795391882,-4.479073438708452,-7.5069294409900955,4.2514340557044346,5.5939351850956855,-4.8944979088278995,-2.2391281131067755,2.221180685011263,-6.606497052031814,-7.423853208189284,0.4960932725830123,-5.83346962439853,-13.352036256191404,-7.363158848720155,-10.875761281132187,-24.570895582390346,-22.869452617131245,-18.767357715083243,-29.627493946121838,-31.460440677735455,-21.01468748152788,-24.759206806380554,-32.306310215072955,-27.595476165884072,-32.800512166494954,-48.39789653401501,-47.685202554541064,-42.34284833860559,-49.09803285368012,-45.23868484317445,-29.016835375502517,-27.02929115765858,-29.509424133736093,-20.081929729767687,-18.431887855506858,-24.36101199656106,-14.6566098371944,-5.578907534279219,-14.817138559979524,-17.215192791712404,-8.708826422826203,-13.03116819994935,-18.00167592850231,-9.65266357974815,-10.552562150733387,-19.241964824518966,-11.37473464533655,-2.6939012904254382,-10.37304166129287,-11.986250025294403,-5.56645245848873,-11.814293661663742,-13.956690785429084,3.8884508416808474,15.047874866470751,12.35773784691477,15.530780906643734,12.213817133512727,-6.4138468926356405,-11.45363230545192,-2.8429500153740146,-8.125686071425859,-15.588092325745109,-10.538194804806082,-14.347846987479386,-25.847148855406434,-22.236195307428492,-17.877249360266333,-25.92474800852821,-21.833930824927293,-5.258870261939148,-1.5070678657735064,0.6902596795655892,14.788650377828564,16.69800129044758,5.379106145866642,7.231775861847263,11.030602648297386,0.7116707869662262,-1.5360886425806128,5.766624466646211,-0.5423210955222144,-5.911035981854434,5.1921598807566,7.415860422864874,-3.0151449608583016,-1.7597258009703953,0.7728377829900621,-9.167080089313917,-8.620762542728457,3.3983544510636587,2.0687700779354596,-1.5405605706199996,5.39801298018564,-0.19610312025230714,-16.541280150306513,-16.01038017642765,-8.948020423360571,-11.14683610116083,-4.113017133779396,8.972545622449287,3.3317726632505242,-5.922512237138513,-0.9605424349468152,-2.6313198735519583,-11.052208308765199,-3.7530099926284657,3.119672982833672,-6.81001081868947,-9.567817864609264,-2.75983634743465,-9.107150589871013,-15.347521362890085,-7.686431186885307,-9.227676639566642,-18.807932644644147,-11.044650367652764,-0.31199743054664086,-3.679834180344878,0.5222975747390866,12.501507746620666,8.991210596252055,4.327343325313483,13.339360937056654,12.80037610374082,2.601470563028694,7.696744100898368,16.39003302948591,14.159487544730318,21.21853244281396,34.801053279205576,29.172468743354933,17.088040714018717,15.571543283743479,6.474634917611739,-7.628863587651269,-4.113639334180735,0.506438108867935,-9.352748430388328,-9.763586414845825,-0.700357853177767,-6.633329340894894,-13.694480093326783,-7.717660173372799,-11.583493883225266,-22.323199472343934,-14.439794015948186,-4.942095622369266,-11.49392950113551,-10.118435144753766,0.999568629241482,-1.235876330471827,-3.0260563041747446,8.234443356779277,7.054025166512924,-6.72074675126174,-8.3953378950536,-10.360820598775861,-25.015265872430373,-28.347149458601898,-20.3535670175455,-25.09571131215988,-30.738679274792766,-24.43825064575912,-27.25904241375486,-36.05028013854357,-25.777981464696694,-10.687279264681573,-8.578518704134233,-0.5461361572338621,12.895029463406463,10.295863728853583,7.893892533908483,21.170002379903412,25.513155915987937,17.902025199857796,19.175293770362273,15.086217954959025,-5.358027877348585,-14.71685782350187,-9.715177799001886,-11.598245650161914,-7.6062121601669155,10.551100106657007,14.168268496795735,3.1683325366307047,3.381176609087526,3.5037187670692065,-6.767316940689793,-3.6806290001466837,8.914494136412985,6.877838618040096,7.158745014514109,24.11128154921672,32.57768349744288,32.035138190064814,43.56484723112714,48.3294400605309,31.127988513899183,19.071510940790454,16.862559193006724,5.6325504639555355,1.7160306588422651,15.389322084815298,16.104107023078228,1.7308289855359353,0.3864045258416322,2.91496480213231,-4.1096866720523035,-1.0933015923363958,6.92824782770855,-3.1616316564156435,-11.474313739751002,0.4815471922480494,8.677100466405106,8.47089355273626,17.875603267372814,21.377204443472998,7.7993143780279635,2.3703465025712966,4.600340861303703,-7.427581818265086,-16.45558952310055,-6.813816081894354,-2.0824163397306266,-4.18469884177105,6.783861553503661,14.19425662760044,4.479915714886026,3.5862530691277272,12.993062514794913,9.316370654105949,6.755247204641149,17.578313775961995,14.662035743538306,-1.451088261259554,-1.4928057924177334,5.269275925174492,5.0244987325788655,16.79613414185744,33.172936815431676,27.074342313859294,16.325997686910213,19.858931168209665,15.876854668561982,4.173973425848599,6.094436099935381,6.165316140512267,-7.362882541464261,-8.786338955050848,0.15643682295918016,-7.989132835998081,-20.895321634558737,-22.5430749135391,-32.28505769610348,-43.79669727998044,-29.314982980311974,-7.912357872677702,-3.6168271571515325,2.6049566689706474,12.232422084267926,4.853933409700273,-2.2289134024468815,5.835092420461871,3.585608194533306,-8.978635516357585,-5.63410393035106,0.23891714993175284,-8.571533504126634,-12.169799317986994,-9.704211193670918,-18.544147007266332,-21.07009599090395,-7.641710801819537,-6.813025124964228,-18.685028468812508,-18.67395829771145,-18.99854462173224,-30.602068046381653,-31.00206357700715,-23.53359096358928,-29.42460791597228,-31.47170691221297,-18.471794398687436,-15.596234831322866,-20.005578495918446,-7.779699921216889,4.885665070851408,1.7898759667241997,2.599174482324384,5.615456186231968,-7.902270274237973,-19.412278228666874,-15.919695628126362,-21.17288802879997,-32.61458757267747,-27.122996637129386,-20.259312162611828,-25.188834882527757,-19.16398964143088,-4.482776355443174,-3.287666552307811,-0.5914624456201516,12.628304482388437,9.575405864234856,-5.709852481875777,-5.167335079028814,-0.8773443062367596,-5.373452513907206,3.490599613488353,21.921301375898807,25.13185339336009,26.109404345513113,34.42790601602243,24.691644588374977,2.7181862806957797,0.8382406550183412,9.786433834983635,12.706106938971033,23.564840748437362,34.00921636124541,22.218536937986272,10.892116853344602,19.483512560945737,22.600973505757942,14.176856146430556,14.472108628548407,13.044266970719843,2.0793494656101155,7.587666332270757,26.544320463448862,30.22420330421111,28.45848391538639,33.854822726327995,26.520165980117117,11.29635422067484,12.056453675250733,13.585353741912467,1.8624528154583255,-1.4005026573610384,2.2273777675603212,-7.085302077966621,-11.313446780090986,1.1314342005923521,2.6406933947107905,-7.022651301292372,-3.7875754472219674,-1.0893790227073752,-8.709256026459425,0.14213620969550966,20.93594885102769,23.916818432969293,21.778780880229576,28.304616961155602,20.99315678982642,4.717116632900564,5.8024298827397605,8.577353296827656,-2.5355404930023724,-5.06862541064638,0.3351707867790825,-7.871686840635057,-13.24855386488362,-2.2194497469670247,0.627579679557239,-4.695528534933457,3.379828276812989,9.252522285774829,2.5703286474693274,10.247158033474241,31.88976909511225,45.463196718460054,65.5720820238583,101.14068113960629,123.67861318136883,128.83169449157236,132.88273224577853,119.10521912517257,79.23598136704243,42.09997944248592,9.488728602349306,-38.516820966443525,-84.53155492420568,-114.32386390745552,-149.0747979183101,-186.15269251443732,-206.70863122540575,-228.99794612725293,-260.9524189141247,-272.17493968993324,-263.3542568763916,-260.1744265902548,-252.04990614882382,-231.90607592191128,-224.28512968332143,-223.1919547248637,-204.20961346683532,-184.8365555574283,-178.61742987541425,-161.18586967007604,-133.56185334920912,-117.10741396379198,-97.31301321008047,-66.02730036480959,-49.071272112055524,-42.18432511591806,-19.859519909519285,3.378670775991406,13.652564625506084,31.763192627474652,53.740207106678184,57.83057282688907,62.613816821235304,82.52827173490567,93.9575008701442,98.577128547983,117.75831190466316,134.305153522526,135.03687355990422,142.79238188167807,155.2464037676272,151.9823827615612,150.71206706025868,163.54169284382186,166.62317377908803,161.80348231087868,168.83182325959893,170.92459424959225,158.73215927281802,158.08852712016773,166.3121864460953,159.90534586285045,153.89089457444328,160.78601172592525,157.87248237025716,147.55444158197486,151.05601883162078,151.6091855967373,137.60202503932766,134.6240747379474,141.8530344552909,136.62074770856532,133.4335563168527,142.80537312892798,139.58304990727547,124.76069815864653,119.8669105307865,112.39637609887168,96.61105146159107,98.51683389393061,111.63958875983178,107.36200649232065,97.20173168072107,93.2543771391522,77.21589474621295,57.13358861248018,55.35435249937628,53.627423978632244,39.585596452011345,37.81426094020815,45.858511780942614,39.47516667101711,31.69661946570928,33.312511536444696,22.817075267072443,6.917266270947658,9.45019502299918,11.03557703666473,-4.223908910523811,-12.150819722502106,-12.3734675721218,-24.14861686412666,-29.71332594263518,-19.551526817117463,-21.555886182570163,-33.85160725302761,-32.687877743596204,-33.86617430396171,-49.9291395740348,-56.120086018973254,-52.25828128321564,-58.62889071110661,-59.90150737189914,-47.343844445973204,-48.948163771621324,-64.02115802698705,-67.55183375395652,-71.18077919086616,-85.11162432412104,-86.24898004253197,-77.82799775203054,-81.99197467774957,-83.4674347858406,-73.23506717247164,-77.09770743127258,-90.0136702762617,-85.557382871309,-78.740065347397,-82.92677959108414,-77.70569569015993,-71.01457717460346,-85.28368167504051,-97.49316583562211,-91.0385641063965,-90.1169510731592,-93.97775976726646,-84.5624125512897,-81.78013167942137,-95.32797916733,-96.02323267035683,-83.85178561334276,-82.9515507483287,-82.56387066533333,-74.17993822178579,-78.83605494302869,-88.5804218691078,-78.59639094002324,-66.65955229771191,-69.09705467311696,-66.044624938071,-60.11396653268737,-69.39207271947818,-75.34603413601913,-68.32581880507544,-72.97190400521198,-83.10966841440825,-73.71775374290132,-60.84252264349804,-58.31670133131951,-48.22719682564271,-39.10714106981778,-51.492625357845014,-62.45846832505868,-55.78979746231694,-54.56541565730802,-57.19272158402451,-44.44658164927431,-35.32003334131218,-42.13647431277398,-41.698045970716805,-38.634777786292055,-53.242336141460996,-63.01527009247392,-54.19174161601849,-54.57660600978852,-64.88478366969447,-63.46130303249758,-61.01497058495666,-61.25114751086756,-41.38173299279987,-14.021464550048867,-10.294838142771926,-15.135774319875066,-9.423093285407308,-10.274714480024189,-16.206082268506634,-9.156035853342413,-4.194247868873434,-8.777587845250697,-0.05032321580400634,13.264195329028867,5.544912467460719,-5.444827507449605,-2.6587489602546253,-3.8247340330482245,-5.274792742192707,8.964627805222248,17.222042149694154,9.26322482992164,11.77948388051355,21.124285424620524,15.176162332158185,11.24167428496449,19.491720130275677,16.347520969749446,7.991183300236838,16.80892229018259,24.279311051787204,18.147690644364232,21.919661970579,32.81068732308022,31.876762902228343,36.25210468999095,52.112490675047326,52.00152646210522,41.04551531059016,43.84070156977039,45.640277187506,35.66603029575771,35.05461912085543,38.16781104470265,26.74157377976557,22.817737624391274,37.256979835242475,41.34232388526101,34.520622115368276,37.553461885562754,36.39272746443508,24.408003363106367,26.634748125699478,35.94900718059859,27.5991797929913,19.63600916611334,26.034589589502513,24.885604361756947,19.299366208557604,27.31340436573697,29.97683261148483,18.796128602849116,20.044024865949822,29.59501243162192,24.634727187201918,20.684552740216965,28.64507455759889,28.08020032332005,25.49177592285659,39.38256265622159,46.75193513286531,34.10064798972249,27.08038495238646,26.229785154473607,15.2773980982921,12.625828391443664,25.3922013851736,26.512186175054996,19.417804209899323,25.770494022090478,28.47611171094917,16.365480617071718,13.071280158375668,16.536317759789323,8.62136987085926,8.193336343914378,24.79922596603067,31.392974190574627,29.15237308649317,38.06490425609496,40.721302914592236,26.87322014007826,20.856437202217116,20.944130188377684,10.615263986894425,9.667480916865644,25.455941392426517,28.208616743404157,18.081434090931836,16.887356840000894,13.269740069387689,3.5818691094048845,12.2156119085925,29.21332922020744,28.668319810155932,27.358868906269663,36.235494095091425,32.30698646617764,21.08913788587198,23.464669594758284,22.159035281822234,9.962226619506206,13.082443896649838,25.37963629046428,23.103644700374026,21.86285120243779,29.633744111294597,22.226015542100573,6.866357962653584,7.107982473712005,7.221083411497114,-1.0467024365173554,5.799558963487321,20.803641751578777,21.098077689549875,22.36016602480524,33.740233806971034,32.527113916818585,23.48069362429402,26.902026432030787,25.692320588715013,9.842208147282848,3.4385894061757822,3.7855194950507083,-8.259881387695728,-14.591592334329862,-4.583170778603301,-1.6905685257986844,-3.6973270451371802,5.53169409337395,6.898011590951881,-5.413271583179196,-4.191111146948819,4.559745028550395,-2.152810199489158,-7.832728041882986,-1.5635622905056135,-2.8528228838227836,-5.36631514804287,6.469801690846509,9.341185307934996,-6.201134887721553,-10.723957571464453,-4.510983818803462,-9.241427112666077,-10.395204683410316,0.0260749605968833,-1.9028864882471637,-9.990409016151578,-2.8460948550062373,1.3016452357881882,-6.547768142566061,-1.988150670773655,8.189334676291603,1.2379385322203835,-4.794442324799573,1.9597707965128142,0.6671400219646668,-1.5157082285924401,13.877167209630601,23.99018516117616,17.88815253516173,20.79650615879476,27.984790094602232,18.880074835014625,10.681910936317578,12.543574195744734,2.825129645506983,-10.39109138295194,-4.7938038823880795,1.2720843462581826,-4.988631871397624,-2.956762588330989,2.810818929794837,-5.262355531937601,-7.62203191373554,4.989958432083214,7.330614797709403,1.9974403283773903,7.3559645717707225,5.974120724209268,-9.045806580836414,-12.696672153279987,-10.470077331295919,-22.00722819483594,-28.675692123765977,-21.149426779381656,-21.601501173614054,-23.85039859762722,-10.541607516198864,-3.458499113039122,-12.936361473571523,-14.629842121096381,-11.629026332404312,-20.454303203153525,-22.39564320474415,-11.321926989286059,-12.506431573176924,-19.831598066201423,-13.670877374569006,-12.687591472866796,-23.74240856113976,-21.101831383017718,-9.934211990494479,-10.2322054441798,-6.752100108613981,4.284045248165514,-1.914471682505349,-16.6764972809981,-16.072699047773614,-15.312847621908114,-23.52473300806411,-17.50947620880832,-2.3069508446495766,-2.193087178859738,-4.222541948907012,1.0294065469712015,-8.132047318298847,-22.355382851056323,-15.655991477773531,-7.427381905383539,-13.93097666484107,-14.039984618878606,-10.152404287523346,-18.13920887165363,-18.011527971349253,-4.14576399088117,-5.431849643520218,-16.87839015080005,-14.436105551525591,-11.602847336046366,-15.94265392743467,-8.469442368831158,-0.7562141700312286,-12.204779954084056,-18.800186635781472,-7.624012366264303,-2.8068052028864336,-2.2755132509740155,9.801662982773266,13.77151116358559,2.7064347085462046,1.7995208161785134,5.48701859680299,-4.511498118404395,-8.86350650501371,-0.5838528977300941,-4.050221970607772,-14.009100681688093,-13.463085646329704,-19.37421042362704,-33.23324575372398,-27.232866896353247,-9.109496922218014,-3.12683100828414,2.764093473907841,11.633812237853022,1.3202918708569182,-14.109216194198419,-9.453664660066666,-5.670538799759703,-15.400198129388471,-15.360352053930635,-11.097249059417004,-21.784544672894665,-27.712173820131135,-20.685524096989816,-24.415004374262644,-30.413822383170725,-18.078819179913133,-9.614494202036255,-18.6912957166443,-23.35709606725407,-25.761692687614122,-38.66393480101972,-39.65835703561721,-22.702487352357526,-17.314804951718315,-21.747077838043673,-15.934477253212348,-14.356721627221608,-21.87138177954872,-13.976971875286665,0.963385223094896,-0.46629160028589167,-0.9966957225276075,9.018537087472513,6.268815392010196,-2.8811034425240476,2.2982584321311803,4.025254615020683,-5.322568929173547,-2.463576309745845,5.22667468207464,-1.6969885693651845,-5.440568732095088,1.4614179156115,-1.7203773368059667,-7.114052378378582,2.406206852949742,7.819962252772286,1.5308775600670974,4.471053418422972,9.123409190842642,-0.8779069470242895,-5.065897491865794,3.8789147876863797,3.1809723175204914,0.05558573129906219,11.13648513895628,15.490364550909272,6.192222591055105,7.742157610741699,13.764068889268803,5.8933556403505385,2.37634131044694,8.237528267999165,-0.9338351569055492,-15.66181296626997,-13.42861984442208,-11.076862921237348,-16.38896992933957,-8.634594120685747,1.636300891793144,-5.683352146207691,-8.71853057333156,3.0016386493993465,4.958649664893249,1.0471619628525048,8.190606950131906,7.6444913754098485,-4.885527461478483,-1.7595864032297928,11.150668250316954,11.28907714092444,12.718204190722753,20.574874096233355,12.849941558477678,1.529405313105344,9.815865134107295,18.042819720726325,14.350389013256638,17.813953046667926,21.54540074519823,12.073044923678339,12.413389510280695,27.463332010650117,28.833605353206806,20.61323168413938,21.214441619258793,15.414668399166835,1.2380889453677923,3.8866395506734013,15.597771427121975,15.327188959172767,17.79540336393683,27.385263062565418,21.833207204175803,11.728215830761522,17.34050428726429,18.33318477174244,6.92386347714311,7.481618503272418,14.568265889728073,10.733835865633932,13.059924759740715,25.512300572402815,24.280797866940155,18.40926699786752,27.62807096382249,31.241532608247553,20.04575196820322,18.393606890723053,22.20095884581698,14.599482700638555,13.038778440066181,21.04807345160856,13.932065336439818,0.9106770696991875,3.598266441090473,5.934786129891075,0.6795043526401701,6.414569838467806,13.40293360622655,5.666552125256715,4.005812232275852,14.870714439404445,14.983979378434306,10.625419423561095,17.7055102570455,17.678961527967207,6.446268612638716,6.503660165929206,8.525186313195734,-3.811429977270306,-8.853901986036849,-0.5852277302822992,-4.5024670758956375,-15.204599113224148,-14.570206731549815,-17.35557885027548,-23.629364408276082,-10.002580208100596,6.806669461917798,0.21077681474874055,-10.019007865355816,-11.09756699561083,-19.439714977964154,-25.275790682156455,-16.351002625998216,-17.70307313732104,-32.6526639164252,-31.443551719130156,-21.04240326471605,-23.154634474684666,-21.14341321528634,-9.516348460590175,-10.507543288946996,-14.153019803521165,-2.822394007716882,1.8105387692379489,-6.1189097489228805,-1.34380447680399,7.893943950997508,1.8325452801839104,-0.6362537997484496,7.812787773116284,5.162169009898844,-1.51469313641935,3.4258691312227154,-0.04435927745844115,-15.51928255085787,-15.147970218794562,-4.339920513695913,-3.406612134719116,1.8824850515677634,12.649024046196297,4.299123140167261,-10.529038568939987,-6.972946273209962,-1.1895654025666362,-2.2368504023601092,7.1193536300476215,15.91884163095385,8.571536171706036,8.79278860661586,24.008066902983465,27.125264934645084,20.187333117282463,20.391318564917537,14.46349507195687,1.0675333698722982,2.762826103757541,9.119009030930393,-0.04779939189064475,-5.962802994798473,-0.9922097982569338,-7.204037167409871,-16.135610563377472,-8.349811614236739,-0.3232097565953369,2.217793668134438,15.747215381260473,23.914155782459908,8.266468629086127,-4.8798097803963305,-1.32989049445949,0.041087888127095296,4.18250575492756,20.535151638102462,25.21815615978526,15.434411383937398,17.101198385330743,19.828212080003254,4.666062697684422,-5.831295527620479,-0.8758775692044289,0.4607553266918669,3.922148850446794,17.995627543860213,17.999257146687256,2.222802055643439,1.0235926791288166,9.554936165733594,7.412245205308539,8.359600388151335,15.240472254830545,7.255258913123748,-2.539749115524066,5.4781847950737905,9.514605764821066,1.0789375252548101,1.4408848853410277,1.3508592555860437,-13.729237251793846,-19.214280721148786,-8.441420631212067,-7.90277761151978,-14.158648880882765,-12.056140448028948,-17.018145911001252,-26.98751740030827,-17.29730432347682,-3.8560366023390604,-9.686888707703412,-12.599925094972079,-3.4554272334029714,-3.4033553091510873,-3.9069198057630317,7.454513463987585,7.406208118207435,-3.961536098797626,2.2011435221203124,12.693496585646843,3.421810329902922,-4.4926911960443645,-1.1658632818176198,-7.074085772008758,-12.493577797117373,-2.8509028069787083,-3.4693835043665,-21.20753419338003,-27.67372235737564,-25.971626949114402,-33.016126636894185,-30.753801610878288,-16.006645537745342,-14.928347598834693,-20.734574806286055,-15.906612561785508,-17.58406994481659,-27.976842112336804,-23.904449105847398,-15.896054459382174,-23.924889865998857,-30.630891080662675,-28.204012535580404,-33.05076764534823,-34.07655163212362,-19.08299072373765,-13.560124105357946,-23.17206557972339,-21.605059250121077,-13.457906977270213,-13.58704731032179,-5.27386815352808,12.9822410132423,21.584847416449016,34.97337384655687,69.57396158404497,99.63089272402442,114.5296249529898,133.8790505008003,146.18449080221737,133.35743434250637,116.18813285784088,100.69316345166874,67.43268864081189,31.475592670764815,11.15262303233914,-17.592116320964877,-62.45609150953785,-99.55717415254375,-134.02755091681735,-176.5591158455681,-202.4249707119922,-206.84212854231092,-215.81029605900338,-222.5139318996328,-211.74889898576205,-205.60884194246515,-208.50067075105778,-195.34638938830574,-175.83715419757863,-168.14573953004725,-151.73694499569206,-122.45088428165978,-106.0912822489781,-96.18834462405056,-77.10236395067214,-68.15682103853962,-71.04516417268466,-59.82261648100817,-43.636862184542046,-39.58308055617393,-26.21707090057439,1.2867863682312546,18.16130890661363,29.887687365329086,47.983207249939774,52.401176842125125,46.78590680563512,60.88195853596521,83.17732914770224,90.25502937466976,96.81935440107613,105.7298473180876,98.43362853749757,91.68354000330802,104.92053875076539,115.70593500297224,117.60574755447105,131.72323597767902,145.344396130056,139.99267946976744,136.36939876156666,140.59288321504874,132.23623565818795,122.7225919217366,129.11168563918335,131.71902749382386,127.10412793758363,135.83873995660613,143.2239745649905,130.60835821486702,120.341386024238,122.19192221644656,120.19294679158581,123.21522403783553,136.80425553181556,132.50579656342808,109.2283058684933,99.09704986956822,100.92437004896628,99.92356900323475,107.5738998163216,116.24833803908447,100.62694098539464,78.16490429073173,73.23541367886014,68.58786830316576,59.42809490482328,64.18924282667903,69.33833975532974,59.984627606595794,57.59708297740765,63.35668860949126,53.03081350238135,38.39567124037806,37.88619656955796,33.35760528537254,22.2879715150731,25.01744384960798,28.438401566961144,16.923398089937407,11.966501301406115,15.956307366604864,5.322439654602529,-7.759971201469186,-4.887720348117356,-5.917875987583972,-14.480887378368383,-10.234637428064506,-7.830636942592343,-23.030847445034915,-29.572884720971096,-20.752958775781106,-21.668403906694437,-25.83034635891072,-20.929803734658023,-29.21095046949592,-49.89109126444728,-52.65391580781357,-44.226589440139016,-43.88836508163211,-38.56120183381256,-30.47339703326584,-42.42242661538897,-60.196482263622315,-62.46305756914728,-65.38956739008758,-72.74593244255061,-66.57529153848415,-60.28747381746646,-67.92607909246341,-67.29712668518641,-56.04207321343314,-56.82607974431689,-59.80427294033301,-52.75769679890492,-57.64459105101047,-73.91170339898773,-75.06068465182587,-70.11392706725164,-74.222809384246,-69.81570480523986,-59.58504537979189,-68.35282505594539,-83.20318426449623,-83.79134256731616,-86.3076839750302,-93.37149956879504,-85.73883836596205,-77.8005494615917,-86.61555382856267,-89.6884833320006,-80.00806897948333,-77.61124421126758,-74.13772100265004,-59.93567628089363,-60.418991513222245,-76.59131177732294,-76.95199566133236,-65.55613096001423,-59.76534658447471,-45.80250906748,-28.511364126325194,-33.71648169701741,-45.897565563050456,-42.72949054238467,-42.9767620359554,-51.948377842187924,-49.76000720881915,-46.826857329695905,-55.33252979254513,-51.835374602638026,-34.149541614373774,-28.345749496911335,-28.089272238299518,-20.365317551545978,-22.596356265015967,-31.443497362089325,-23.60332089346551,-14.33701709477565,-22.188433149813424,-26.808732993581593,-23.280600920981676,-29.09882545525297,-30.774599832891585,-17.125674823464514,-14.326052877010293,-25.32036263507009,-24.095697450112837,-18.040163050672767,-20.48160395899659,-11.740489745631375,6.168807598490155,5.991719206703867,-3.011264633796371,-3.2379430581829607,-9.070345164354638,-16.815527436199197,-3.9628377223843017,12.127114094745234,9.281882265798783,5.26513017768567,5.599605700557665,-3.7198814220393634,-6.702739289737139,7.244869411296503,10.805247660510775,-0.17613078919962,-1.268697805972402,0.43312911939766374,-6.653874952833239,-2.673601740407674,9.793286547285826,5.810636111666282,-0.1411167545187575,11.100901257746074,18.17035140406806,16.6245675074167,28.051454070562254,39.62314761522631,35.96155584446282,39.399707492301,49.60336896315909,39.76868062265719,24.013861503818585,25.012064944279157,24.601105969606618,18.713618180153915,27.602826895052747,36.933859697320216,29.207006804729836,26.113157969636433,32.37941638345025,27.23142831245081,22.352468834731233,32.43852316384477,35.24219936014719,25.910697521546545,25.998134686687774,27.349333350386136,17.79006673137122,17.242609215953966,25.424944404882886,19.816321270393633,14.681638099896958,26.73602412706758,33.312765297734344,29.443759684225377,34.276163594955676,34.68265913386337,19.358139388496596,15.44384984656969,27.299055903541763,29.073485251745307,25.330449829411698,26.380601622915357,14.672890782961408,-2.1570822626934474,5.936460657383593,26.107604017052697,33.22050700344311,37.87065295368384,40.78005239796843,27.114973541934354,16.182330315477856,24.473393650853886,26.920040288179177,16.85973716397868,16.94723758340948,20.45406034690944,15.946223380493016,22.154854072766362,34.55515453442376,26.76678110055112,12.075830419789781,9.837669927718723,3.7071041211541838,-5.676386432695606,1.889560276625625,11.160886446420808,6.501462781040395,8.018276883307934,16.117746769017355,10.732403761199908,6.2508113395111735,16.609088738468532,19.63546396141634,12.707973472761934,16.09576805303508,17.696544990030777,4.036148007312467,-4.0733193019345135,-4.579069601157203,-17.171584783217163,-28.379871526750133,-23.33402933025958,-23.242069882547643,-30.461225737565307,-22.837581820544525,-11.36147992809359,-10.74537975542428,-1.8550428669561962,14.472198857640052,15.4411821914326,13.53721025112841,22.99480691374002,23.073774033526426,13.369940968723123,15.425919293371548,17.628736590697002,7.57651069258794,5.496330738543263,10.536332807858543,0.9012388645479037,-9.73806684876079,-5.130769932326724,-4.021125611348667,-7.972462857897141,0.39574998122860183,5.9533624439020745,-3.5117971321680397,-3.7717349678025833,8.06451678100733,8.761545871433302,6.669743930967551,14.61333328595946,14.40189353582804,8.362248279905927,18.246868691377376,27.449984912128944,18.49035058085055,14.270669733079519,19.775251597484328,14.613662412987107,8.651554341960626,11.728169563115953,1.0947570455735223,-20.21334375422352,-22.441723752927878,-13.573320183730232,-11.401342871954244,-2.1690580151398926,9.43042613988163,0.6285107127406686,-10.594401577653926,-2.8478776046371057,4.580449791838957,5.356895183631318,13.212657293673354,13.054106917202498,-3.7221938872350693,-8.743605891259424,1.8416787936613783,3.5417030793875304,2.392691409425945,7.5724453639131015,-0.3127337154305332,-15.273601669327673,-10.468305849590262,0.9190199353646622,0.7517131874914453,4.866532690672088,9.853461105147842,-3.837141224264756,-15.012450792675477,-3.863747304066343,5.877705390238354,6.595260041551606,14.348192321639884,15.190603917264557,0.46754137004957386,-1.5760808843105718,10.2691630106263,9.392526973448929,4.616392132634542,8.80087656513745,2.4271837768505615,-11.127293195326962,-7.141079096726735,0.7314914098223433,-4.045511209800887,-2.1272752392821723,5.663917171435915,-1.9212018322737947,-9.246269796803261,-1.3032019949703697,-0.837757056986357,-9.78100988762634,-7.229280519551546,-5.470333282728709,-15.085088770355016,-12.31095719817936,2.0471886871562326,3.7506905315433015,2.95708133375653,10.295148084178688,5.002762249000831,-8.711279345817832,-6.686155834135599,-2.8277958652814466,-11.333395321220285,-11.406528221057858,-3.4366417461453547,-7.7418968867814835,-10.431532525309876,-0.3284606048460672,-2.0524914451765754,-16.24863777086984,-18.26823615161345,-17.83222285110253,-27.111044763034748,-24.88741308273088,-12.82850271813341,-14.988395346581235,-18.292898961238702,-8.126908848815829,-6.021385684124674,-12.988498099909496,-9.338097878588659,-9.788594338786558,-25.199337630367257,-29.177434462145463,-20.104835679491977,-21.319311714971462,-22.259630847343736,-13.919119642928486,-19.77830110001781,-35.78900274851487,-35.708118384444624,-30.735725302297855,-33.71553851030748,-24.86643264201698,-7.270940897983956,-5.129749699072456,-6.257011394222593,3.6387770391070506,4.922017971966446,-2.3171724369762496,1.8474680592846129,4.138989349691812,-7.52774363821122,-11.054867707501717,-5.942496244727864,-13.79682810800481,-22.711502540842737,-20.009622796091886,-24.43098874333158,-32.432587193673555,-22.533401038338905,-10.24473539029929,-10.820223393367998,-4.367861917684026,9.214837750121646,10.095649037793617,10.489131671463655,19.95228914529951,16.95710836860739,5.659059421743121,10.522703500750946,18.563927300047308,14.793826010910761,17.042281088002518,23.73380246010126,16.848912347734792,11.737717349327319,18.440015459068203,13.264517326849376,-1.7298519990508296,-1.7230473919405849,3.087109921268473,-0.33533232155526305,4.21767679012254,12.134973571359359,4.248883324613292,-2.2553489800577573,6.443119963625708,8.313135010833674,2.307317264895449,8.170488940171847,13.30021411600026,7.38112165028021,11.71853240717434,22.312641615676586,16.2413896067034,8.802046948771103,14.11414607402003,11.735618297774744,3.8061353908961153,10.30780488570428,14.72356402386981,4.31393777558668,2.335542620067173,9.108733641219967,3.8352534546322326,-0.36769449983938784,7.197226100793685,3.7929122638001154,-7.597175257051657,-1.7665745455776496,8.933470370025738,9.161321692828281,15.360183286881256,22.948836965448965,11.079250590034505,-2.67885728181659,-0.9740627676622333,-3.459814870888666,-11.055006928822646,-4.1820891858947835,2.59221542005565,-4.0852100884078215,-2.72883102471917,6.2872221379829085,3.0528108962131637,1.636643526580492,11.890539196924083,10.20671435792389,-0.8532227337712213,2.93945705593753,10.079581780045409,8.572508756301463,16.080943432296166,26.15231514527479,18.25398606864485,10.67784183404061,16.676810008725305,14.145685524778374,4.6828282543021365,8.420255150839466,10.690341489992456,0.2053712417129443,-1.9922056826111016,1.2669210232320423,-9.213289576937452,-15.016688765650969,-2.318109027837968,4.752989201583942,3.218574514227402,10.040072474731868,9.54486606849825,-7.3443500704243565,-14.068092441861113,-10.348597783426907,-18.487002152096,-24.9526247569301,-17.721496939409327,-18.437834145044615,-24.23947779671409,-15.001745358412967,-8.781377511356318,-17.308332553929336,-15.704144574960907,-6.031014066649882,-11.574649353960623,-19.839509513975727,-20.29774742182225,-31.801586128648296,-45.80351867191071,-37.6221149926109,-23.706750763895105,-20.64880128215922,-11.341460159508152,-0.2838030167284282,-7.539115368708522,-14.881360520389338,-7.354930144818785,-5.977511054786532,-10.033254577200138,-1.41714752304526,3.541872736505689,-4.904360031238163,-2.4049855680028855,8.728431245648,5.37789996502705,-0.2229451176459789,4.119076897111585,0.1952114523781172,-7.344608452178498,2.6057726489652175,12.569782524221374,7.176133784750434,8.206921380021514,15.149964496206545,8.18649060794012,3.7431625770696746,13.500701877235908,13.225473992750096,3.7349631155611522,7.370924193978241,11.059656458475041,2.817115961636863,5.01262176430502,16.51287140264099,14.071787769840489,10.651693489980289,18.463651413258145,13.691742894957429,-2.34114702481272,-3.2453743768646945,1.5642743764117084,-0.03304880280237921,9.778965408146437,22.619405340083848,13.03639052920613,-0.45706178394765207,1.6980239413273233,1.3197264350714966,-0.06965988840365367,14.284934742020482,23.38953921272087,14.299961836052358,13.106900816843373,20.066773495532296,14.527042833084643,11.462227715131666,20.25687936392954,16.28503403503757,2.3775405294737904,2.1743241415727006,3.2194967587774763,-4.38027585263599,1.3412279252660335,14.616366962228112,10.216343805703879,2.6895144345000963,6.727058305668855,3.678756127345554,-2.8183030463039414,5.94202794908724,11.23129249573136,1.2919794390137413,1.624493749775359,11.672264669133087,8.449957869735323,3.8304859241830154,8.00615238652825,1.1334955196694168,-9.89281819144653,-2.922628776713195,3.899228064630663,-2.677111518775354,-0.2522009397552436,9.144864829632423,5.717539567062977,3.767655659346263,11.863244610722571,7.884132424880284,-4.375018615834103,-4.610401529558523,-5.768896390685985,-14.04500624241449,-7.018273420504698,7.816435849304837,4.250701950307535,-6.752270190253755,-12.158299934199729,-24.149883573690747,-31.60742579627226,-14.892619104220113,3.333336035926221,4.5015924916547885,7.461541154781845,11.77925503263111,0.8207616221815224,-8.513650494527225,-5.0095300597375045,-10.210950742141023,-19.78269620526976,-11.534118016383182,-2.1526060148000523,-6.3491613457167855,-4.723362259975184,-0.15313143891432457,-10.125737717605105,-15.891880166414225,-6.328613465597424,-5.647425980238307,-13.029135695241726,-9.608553319571307,-11.04386493426785,-25.105342614484123,-24.970284832899225,-12.098409678458328,-10.216872042890438,-8.849212723887517,-0.3149180507055305,-5.6792926689524075,-16.70105501328716,-9.241510328433524,-1.3043993839752925,-8.166810250525415,-10.172388521013723,-10.6046080869144,-26.23095160256016,-35.71550574291284,-26.28390048249669,-23.133547938312233,-27.003849761949684,-19.113682888828713,-13.913524635586185,-18.341279904542485,-7.289772167349813,13.476189863721547,16.150882835006175,11.233211916719942,12.248368437801968,4.249112456496239,-5.6734205683457155,2.1775770894002964,9.454519360685612,1.684216997417976,-0.6467467820510021,2.9198050341262185,-4.6273607733025,-9.37458590118172,-1.409205346361615,-0.7462404604552688,-3.9911440336088564,8.157596309017833,17.92839354902799,10.694619626636051,7.345857374478619,8.708573619824376,0.28249855998990725,0.03449795675541245,15.313014843027966,18.448271303430197,9.108766613350863,8.931413939945683,8.750647503446668,3.1787801600581593,12.574318336637404,27.588478583078704,22.54644367439638,12.622248509381162,13.569327325825501,8.871263683729271,3.1544759235131368,13.619274948520344,19.85760749897021,9.213400277423597,5.373447550203072,8.011514822380505,-0.7569966727994082,-5.082889757344263,4.3173313306669385,4.732641367579639,-1.4162387949075992,6.053555360657604,14.429131193780837,15.01749440914473,30.041635431099014,57.64088052141555,75.48482601009925,94.20868087184363,122.34308944835152,135.58643485977723,132.86406366336385,131.49082133755783,114.21828914365139,69.65296710150729,23.050288399200703,-20.494272273223558,-72.89114150304516,-114.91600522190546,-138.71888552676697,-173.5991101606731,-220.016548203747,-252.61301022924724,-276.6063494293714,-293.90907439382966,-283.1749874333436,-258.40572204469504,-250.40736767734631,-246.06472788447033,-231.33187551197295,-223.74804347920679,-217.93672741034015,-194.4512585818739,-170.15159312551108,-155.72377953078336,-129.94519521521457,-98.89053804355137,-85.0320427347917,-72.11410962338277,-47.64283803176343,-31.39427138391985,-18.043027569673583,10.458581903901504,32.65275739661651,35.54827932958533,43.431281318504226,56.75290095266807,59.71416458619948,70.26240025547635,95.455029658066,107.61171119899299,109.13219070148426,123.05175550147915,134.30734033522043,131.27332301618947,136.45594782684543,148.05901534700618,148.59893731292013,156.2091823188452,178.50615485668618,186.55781870509483,180.3296600848716,181.78510184203148,179.3143496893311,167.50547944382538,170.6302780634801,182.7107101201117,181.37755127577867,182.0826115388144,192.78581385220716,189.32787421024145,177.08228891296926,177.47220120973495,174.71070291062983,160.49871791538408,157.00294607479847,158.09454929925948,143.83718966688127,131.87098846833146,132.71790301187477,125.01848772693481,113.24551282722216,115.4733858271577,113.90713978072797,99.66263862672129,95.80932211408754,98.82921276093357,89.93176151254393,82.89065491789908,83.30884205684863,70.34471261174855,52.487506798793405,50.174745944226736,45.96155856192065,30.45699314436631,24.6861278888138,22.61964141523044,7.212491716534638,-1.7445206145539291,4.377031489174924,2.969749681982203,-1.0175231517917307,7.910769774517288,8.846468352851968,-6.381364486907515,-11.85223957232885,-9.246356540150353,-16.905978572751962,-20.260140294391864,-13.108231364379215,-17.714102987131643,-29.18879825590712,-30.330485442379615,-37.90939153969494,-56.774917282535284,-59.68718430026361,-49.26894192047264,-48.07158427482269,-47.50779264025181,-43.9011687440286,-54.862815937562296,-67.00983239350687,-58.638115339581454,-50.81109031173267,-58.29720741050068,-60.58727496770484,-58.36523923935732,-66.11634422951076,-67.9960671569328,-59.59141541101401,-64.07233574096014,-73.92808720585784,-68.16243887441821,-64.1883601690858,-74.38682213987842,-79.0908161786592,-79.15639740129262,-87.4679538354628,-86.95471968288439,-73.38414457956895,-73.16398697018032,-82.64665187129495,-79.56170979441862,-75.76346146902993,-79.57536598342631,-73.7957512394085,-67.49769463585518,-78.31745071325207,-85.44607585964933,-77.03431237967152,-73.61500080206021,-73.07021087996804,-62.24717259436726,-59.90752351511894,-71.7235573542543,-71.90270904461403,-63.7268943129711,-66.56698174366932,-66.48337011979496,-58.23685125605502,-63.492522193461866,-73.73119183195473,-68.05361911719876,-63.43302750198991,-69.80554138073101,-67.24024108176076,-60.85541726776819,-66.43213428526673,-64.84439796605663,-49.72103716849077,-47.65251918782898,-55.735701947334974,-54.55132516293496,-57.91277155212315,-69.49078356452124,-64.93005801121011,-51.28616481667933,-50.98405107305485,-49.58698728949442,-38.540630978446124,-38.57048772575749,-42.833103703749686,-31.48233874538908,-23.750586313019426,-31.994056076920156,-34.105628399257185,-31.42759746958169,-38.98086180067155,-38.70646777991308,-25.38127607215541,-25.915056648311253,-35.53287294766076,-31.713548140159467,-28.456941231034918,-34.08692045382567,-29.027239043011228,-21.408900225513904,-29.460658839427065,-32.55084868367744,-20.200375880684057,-16.566171657196854,-21.23091217971925,-18.510962647621533,-22.084209521256234,-33.186032457747466,-26.390074304717885,-10.756231446442591,-12.051274902095455,-17.09961859872486,-14.472749873671749,-18.09842576277897,-18.078999271489167,-1.4145324336453013,5.928016904974457,-5.727591232762802,-8.910803286922032,-3.6981988026180797,-7.533533699249686,-6.677842157399521,2.8410293926593524,-0.6663641606035471,-6.987116165220355,4.769047537160191,14.172522891455404,8.328425033051829,7.926892565214652,10.224800754031243,1.0965838330380806,0.643522065458958,15.551589116827419,18.844986460712207,13.242703795934913,18.63322244896618,20.07664479228581,11.117338498124017,14.575807777982142,23.369573822214235,16.82042706493013,11.723041706638064,16.452786294050266,8.825341292007787,-4.2260856734167955,-0.713787638840528,3.5184482929711147,-1.3527678027132866,5.713175489354333,18.318849105970624,16.81844592844287,19.684564899994637,35.65897727548035,39.64468032290325,35.47957615102168,43.61602001448571,48.685874700669586,43.304678255667866,49.26892519581521,58.4039056563818,49.34365777551879,40.02019348648452,43.09732807548944,41.05662942230372,39.471927731025716,52.18180749172285,56.60582203642913,43.647248248950056,39.873425758395264,45.08371051253957,42.64437954693077,46.65331026153368,59.119407084170334,55.17089583219499,42.87350573092277,43.45817511249893,41.220599816621984,31.089870991194356,37.14650843806204,51.08709643665077,49.94449506550926,48.20454696011819,53.47868315426348,47.62630906055552,41.7335084358249,53.78635017395104,60.48816103074484,49.10855547120668,42.77458717444892,41.91140022593764,33.73177751049955,35.86632904794632,51.4695223328232,52.670354135966534,43.171802591918585,43.30873186295466,38.803626945190416,24.967444076884405,25.641595666282846,34.52347111845616,31.915286296024547,32.77905449379872,41.86331382985652,36.357980990553315,24.252586867287192,26.479196644226604,27.418733472090167,19.964203135471045,25.287061167517695,35.74585685000316,31.24906107642323,27.885136301722046,34.07535973293767,30.169216239964562,23.975002672919096,34.00291546405332,40.17328096784063,30.08361784909184,24.91507533529673,23.820957661896355,13.17115051309416,10.487306230853884,21.461224491345682,21.57733694455962,13.959135030233455,16.711963075732182,16.14661002538178,6.285355273377859,7.271928252273078,13.224930163428414,6.751957076954893,3.0342066283674933,8.637086683273871,4.996308184845516,0.46494632465468433,11.569524580478564,19.328953607457024,13.9305752407731,13.895998757492613,14.326706839292676,1.4835975339563907,-6.094925844271453,-1.9906316708098257,-8.316286812611631,-19.14347509231634,-16.779402710585764,-17.23237129359095,-25.119399464041468,