-176.7180042670123,-191.5589351757729,-198.0255577906733,-190.76101788374712,-199.91829388586098,-212.9833870726922,-205.61936368170007,-201.23922291599692,-206.62373216839245,-194.60641469788538,-178.6933878577967,-181.68941664572696,-178.2593203577605,-162.19235536510175,-163.52486024243288,-170.14081878253668,-157.5244012131119,-148.4512974987772,-148.68538612342616,-131.19330415170958,-112.21848500122435,-116.84531405683097,-118.47629480358754,-106.86403087242138,-107.21093123670582,-105.96934339634194,-84.01522188362414,-71.53453647148532,-76.75559490993624,-68.89931399898954,-56.30797029027946,-58.40496879863593,-51.220642394669596,-32.76789531786196,-35.49532900748354,-46.48008840466396,-39.323645686777404,-35.049549129406145,-37.63788077776018,-19.68953973997959,0.8970687673167976,-3.3721527361205546,-8.018178103884354,-4.075326321734,-16.926836249095775,-30.835645974857666,-22.21712572922609,-18.652514536542327,-29.048566007785787,-23.89296357890442,-14.29310936215899,-23.023951314838826,-23.163390897127897,-4.456779618103299,4.37530696934292,12.167978855801993,37.61867720699551,51.730375503257754,46.42258842721742,53.10080223441209,61.72442023693479,48.93021512148162,40.24640161226118,45.32802429447528,37.90832390979887,31.768937332309726,49.12269823122396,61.26378322563636,56.75476848017721,60.01534992915683,54.627350855199325,17.719953692726545,-15.996438539466853,-25.50514161651281,-32.22216230089096,-26.33752196510978,3.2183047294199163,15.881002439931995,-1.2859237715298333,-13.441687400516773,-22.75190772289157,-43.40936308181733,-47.148326527782224,-30.3061992648356,-26.605847460261884,-26.496495681943045,-6.59271390243192,9.986565924903525,15.184709880091033,32.76256755866654,46.348541658721174,33.088810323604186,21.725845075160482,25.715552906182012,22.878379593649456,26.078691119892532,52.629122954785196,72.18941862262312,74.41262631050142,85.60933802801884,96.04852309925496,89.47985739304686,93.20989965087325,111.16556035172965,113.11039852669398,110.66322260987572,123.7900449324717,127.5574200188444,118.50511662604382,124.22883385498349,129.7457840479855,114.5941367069245,104.98143524118291,105.72138748721498,91.18676266730662,78.81479072781366,90.90213693917465,100.55324103291173,99.19581292599831,109.74274792853961,116.93811660328241,103.63199953270578,99.58561351080456,110.51413329379773,106.40165095371997,96.84158027626904,99.79912066709079,91.1487122190834,69.05581423554041,62.000166788846485,56.686497163778014,35.98637380110652,28.684109848569772,37.597655842479874,30.20151549034561,15.655693381586586,12.21884684880125,-1.6770971198204965,-23.42621703818795,-23.618469420238235,-20.099034313463058,-36.903563355086916,-48.89074597417709,-50.45542497983156,-67.8586357203107,-85.84474003709686,-82.94922896636072,-82.58004823855578,-87.08187957991706,-71.17628350120296,-54.070338787567785,-59.15604556907127,-59.977073734271315,-48.275698818863546,-48.034134838654474,-45.64269894405201,-24.400489756151334,-13.916884386938026,-20.679316189827283,-15.997694402082724,-10.871390505658852,-22.607380368833415,-24.208648208494818,-13.947395633709728,-23.298395954434334,-38.420496238265414,-36.84438206814822,-40.7344046283429,-50.37253362701103,-40.365872311845656,-30.846698864805717,-41.76878503792658,-44.112635715054566,-33.43915718148434,-36.701083300911876,-39.653975590575804,-24.587041876649668,-16.135889180293873,-14.697118516874655,4.930326934744028,21.96980730864478,13.262462491870771,5.698750881545416,7.405664014627451,-3.552398441167256,-10.351500535369956,5.3157399916352475,14.68394475816962,10.941003589040575,19.136864757811534,24.13533433171894,9.254418693812648,6.405845507468007,21.539185389312912,23.296809349326224,20.342504449578247,27.847511505923464,21.29510563538107,5.07887409010894,11.388306843467554,22.15938505464205,12.620412763007575,7.265927608626603,12.421793883986822,5.826349331336251,4.00870459020257,21.800983113716313,27.979967583786753,20.175066503642825,29.362861652197832,40.79287962830253,32.35802509951281,27.668771181121556,30.325614990967917,17.72763536086736,9.010823494306873,22.216838068859108,28.40137122675784,24.06401504022319,36.34014063761505,49.15268299664424,41.64406956085489,37.67884268822439,41.95324273505274,34.98408548950842,37.41683960628944,66.05197337051597,88.82226547745061,98.15705257456732,119.6096769485062,140.5166041052941,144.73126452985204,153.80955277686957,160.88907965162304,136.31482085781744,102.52554125408021,88.0666145248676,74.36997526496319,59.530624226484534,61.965580685094444,58.6309136469809,32.33987703522147,13.521655445410165,5.7518279143066975,-17.060366573054992,-37.88367989131572,-38.38763176518055,-45.74443508782016,-62.83564417947381,-64.93450253170658,-69.30151235020053,-91.77267598190649,-102.92715484313544,-101.37043198863805,-115.74128143207243,-130.6215663755872,-127.01362314980796,-129.47412869280788,-138.3026763487909,-126.95974939295019,-112.97170393183343,-116.50716475337657,-114.34291095752056,-107.60115113241261,-121.69635793488811,-135.84761935304158,-128.37061803425146,-125.08540874468017,-129.8520954094822,-119.29363220317973,-110.35367986176503,-118.07889526448619,-113.59351113263482,-97.11148885741453,-97.97468023815563,-100.55949116591715,-87.08646997586705,-82.89169946541023,-87.40005800415894,-75.28126265024054,-65.80369386067255,-76.72524596845862,-80.12096102325053,-73.50654072872837,-80.20706322656059,-81.57515558183138,-62.99655204868556,-54.55507516940553,-57.6316525067285,-45.47969930695385,-34.431990034392065,-41.53617764642388,-42.35586586707703,-39.22230908727387,-57.08017722679514,-74.83988723013472,-74.19431670573888,-82.56384602255235,-100.72116102762213,-103.10300208163963,-105.74656033901105,-122.46493275445283,-125.24034882200148,-113.78822832541168,-113.20847167406079,-106.56462938801958,-80.56877052626383,-66.37408345184156,-66.05229474604647,-52.31005702258692,-39.37984447467126,-41.118621910665254,-31.153038510747663,-12.799287429058992,-14.776318728383295,-20.230704477722444,-11.586612308296793,-13.7527906135082,-25.01058142865615,-19.7623636339716,-17.998787499775712,-37.321119127478475,-47.714142798537694,-44.18256158959984,-48.501489033248035,-40.904829143700155,-6.255106544350249,25.133589103423645,52.48415418389568,100.97491485661827,147.65444287659207,172.47742088501707,206.2530026320369,254.57934981461625,294.42577401006,340.29034810795247,397.11286986632854,426.9715966277229,430.0155229591649,438.6388027980025,439.7136126228828,419.23512383638524,403.61819323297186,388.42234555992013,344.6516383738831,285.65303686823756,219.72781130100316,121.06303631583097,10.865880550319844,-55.0483875300815,-78.55065668744956,-81.30150232252076,-53.95716666494223,-20.471509369055564,-16.246740638030555,-6.437052551930908,38.36728932798234,79.7972659892073,99.57064125239691,109.55904762601773,89.22686305174922,40.3388762609661,14.798427851731475,19.353330598298292,17.019274862473104,10.632369418669024,9.095081618231026,-8.76608962450831,-33.43217769915784,-38.069579670605485,-38.57825100780124,-44.640594889874606,-29.843612788994626,3.769638704472582,32.77693538839111,62.28401923913201,91.12400823475454,100.26455467945989,101.21382602230688,110.67164273826316,106.86306119111175,73.14885237295707,17.64962985566801,-64.86903627546346,-169.15143338390035,-255.71544617598818,-309.4912437329799,-348.2320348557441,-370.7698227611717,-374.3007241853145,-374.18647102814174,-364.91460984223767,-331.17705382240007,-287.741386727014,-246.50663646101725,-194.07596906981604,-135.88141584689782,-93.84574450982618,-63.20999229789195,-33.98699068439444,191.75851589296042,87.28665139010683,-0.6891634800791664,-69.9684473897874,-123.56037070520769,-132.7006701740481,-100.08153292756212,-66.34855019512386,-39.94558280028468,-19.201736459253027,-31.22780631094545,-73.24321243266033,-110.49124177920962,-149.0412258223967,-202.73432844765705,-244.38551872798791,-270.81366865375173,-310.0336656347009,-349.8367288595633,-372.2835382321425,-399.043348721617,-428.6852046400358,-435.29791391796374,-437.0213946010531,-457.1801653436153,-475.60740674365036,-488.8205046432453,-513.6038130279172,-523.4937601964241,-496.0368724297823,-463.9829770848447,-443.2883166567024,-417.89236035920214,-402.7761495576503,-405.8507952381143,-391.2053620029392,-357.7231538989299,-340.6304438089886,-328.8854950036896,-305.61790279931483,-298.6971670393635,-306.21323229570845,-296.05874145940226,-283.56360484400307,-283.70040705301847,-266.3765460611299,-235.21979237647548,-222.61496597938043,-210.7800268623809,-183.01836478442226,-168.9343754902548,-163.98168449344226,-136.00973649225875,-105.13095438328607,-91.69847501329163,-71.29340192108504,-50.36616795921337,-55.51772804894376,-58.969988199349835,-37.319055241647085,-18.262775265287218,-2.19002907655058,33.8763274703173,65.54836040293866,74.66701019568582,90.03765864906816,109.46630396051278,107.23923983631336,107.11224662111,126.70314835168058,135.29899528299484,133.7214198019706,147.5472582636589,155.82321255520043,145.16490073525733,145.92852935999298,152.91368456948848,137.56820593858822,122.55686607141561,125.97302470851659,118.86961715935902,102.39247084244246,100.40422298156176,89.48548515929913,55.471820339178215,32.46620974235953,20.21634799652891,-7.517578082465008,-27.424546445692474,-23.252051108287418,-27.787287769225422,-41.08876841833781,-37.08735658294201,-37.255389016984225,-56.10851000173739,-59.32899759424812,-44.70770480151012,-39.998082167977664,-27.33444460372113,10.462232800838015,47.55020424942991,87.87785365091267,152.44694417697804,200.87814698986475,196.52619390603135,171.1763123390118,146.84982958682815,119.4863749562432,116.55998687293572,142.82122054302198,148.69377520248207,130.14266138672374,128.86317135821076,134.12551316661666,122.05435361886677,116.12275919497787,119.44654026350125,110.32219755160105,110.27600193178517,132.65996422182266,138.45483153054136,119.52557691361203,106.50450137453961,94.55699601309239,79.39954177826712,92.78181083324509,128.63956023888346,148.40379176563434,157.56147002393277,167.19318788789548,155.7543069489521,135.46770778063646,140.11182095342465,148.15980795238428,133.4335198918813,119.27962419226884,107.2427730655948,74.02599554602163,46.18010113178494,52.52182618391328,66.61521811772033,78.02608706295622,105.88331764642288,128.03623234153784,121.60775529255628,114.62249310868158,111.00743654640284,80.45146026370634,38.89892633085072,12.14315963606547,-21.504152460133415,-64.9926013487196,-91.99931114309382,-118.55931042395895,-161.12524283920882,-187.66257978501778,-196.99854417651073,-224.01054036133985,-253.5218085287956,-259.4717799192325,-261.7457477525028,-259.11763136814074,-227.82123646328336,-196.62588195738968,-197.31954007696515,-208.91582431432326,-228.1690291197823,-271.4728291045295,-304.66813348468236,-298.187156494348,-282.12619036832484,-272.3044112292213,-257.55531667601934,-257.68388331463,-279.4944717669954,-287.1507164845244,-281.20382735349034,-293.7866667812655,-313.40588410397885,-324.60074642085107,-335.78261024921653,-305.2270784190627,-181.43732667888514,-3.4513776071752957,156.27649138419278,247.4975578858309,216.70698785691894,74.50476830259514,-68.64687156568024,-134.5892090472647,-133.94550599513997,-82.41539964796972,3.8895296027532495,79.46974594524482,125.0788148243665,151.2589072011522,139.9938360026227,81.5018439792943,20.309589212247708,-7.619468338890326,-7.834933297483634,17.907889058313415,71.04116001108831,132.77250451868207,186.21775960763713,223.22487037027307,226.1568656985535,190.4902311202549,149.55616615347097,134.17103015693692,137.91743583276627,144.010540791247,139.41205726181437,112.95419507634959,83.64347204489837,85.75489532032253,111.2673202643428,129.65087040166088,137.76446634694818,137.9871642975463,125.68222887100941,118.11479266311405,128.359065468537,136.19600638948063,138.04172757170136,158.83365596607035,191.4189398724863,206.98646643172458,208.43449248602508,201.79356976999586,176.34316511151792,152.4006402764434,157.18710851931243,163.7152279024085,144.2257546425142,119.64307224747962,98.62866129519989,71.06557630826295,60.430561092737975,74.6331730206647,72.3651896593042,47.684363696852785,34.065118759756594,24.37834831490575,6.999764721155572,8.019900371247559,19.942056995601277,10.929974796623213,3.5752484829666846,17.940172844670773,19.244620238954052,1.4755664099048733,-7.791236317387416,-22.751433244695196,-53.22916853044639,-65.4017248477813,-60.48410755702033,-69.79952465905274,-79.31105831227215,-73.81265346607924,-77.82898864944708,-87.40664201050645,-73.61954511351921,-48.907828949657194,-31.460581840814445,-10.612782389004286,2.8994587592763557,-9.63779034438156,-22.32951636223,-13.59037140268455,-2.2046344818855923,7.936114518910665,24.622167802908002,26.469992647069724,7.824597495541326,-1.0695001823375423,5.779045586260768,12.974443923375542,23.156538635052677,26.796280761126305,0.577774308470703,-35.1376141383803,-39.131040816741006,-13.727327861857198,17.8335596276369,40.062553751201015,28.448451713312483,-17.197741169430877,-47.84588880139771,-34.566636142244995,-1.3639833581947105,26.685441338851135,34.02857262138565,6.654217545289312,-32.2229379839056,-42.62213846596459,-31.188921119363144,-25.972219900990428,-27.86401675538586,-32.85759842581502,-37.47260362134553,-19.846890592214322,20.844909876844632,47.73825542484386,46.45937046296503,37.23169666588167,28.05185622194016,20.936097970392833,29.63277409280729,45.991814270201644,46.84039445184621,41.33656732127549,45.34400344471032,44.4097251730205,34.26718527081334,31.426414060421923,27.551394397252004,10.030006735108557,-1.6379963935137407,-0.6484469820774297,-7.416266973128861,-18.98626313571401,-25.141572524260397,-44.853699155140134,-78.08482260248331,-92.24841514956856,-86.79287947501025,-84.29948370172076,-80.78472763205319,-78.30718648875857,-97.30526633469816,-121.49582369103739,-121.20851917322591,-112.01854971288824,-109.75536787668946,-99.56786988674402,-89.69684353537741,-98.69388818477461,-106.68634324068012,-103.39322835369049,-111.58692834569814,-120.77646811023295,-107.15159661004712,-96.99818028102052,-104.7653703709845,-99.88049394204197,-84.08841621097224,-76.57130710617018,-57.75119899389473,-29.618191265363613,-32.57961734723125,-62.14492685901381,-82.59453004151631,-93.87449078825895,-95.02162275126484,-64.37266009767725,-22.749702191615285,-12.80237373086963,-25.841303607846456,-37.911759008613224,-51.1684089691693,-52.07553543007185,-26.547129675075396,-4.108184506680565,-1.9414939620814293,3.39191508618815,10.21432918044044,-0.893320212700135,-12.07086862207737,-8.355756180082016,-6.311652318261668,-1.5275438363488982,19.228201679833987,31.32143463383951,22.44729941240732,19.824408368087262,24.316038404867385,15.113264286327917,6.117812507055069,9.047754852446506,6.313487725556177,5.06641757990819,23.149557823249143,37.45337333581099,34.17701690867099,38.566672610794015,49.979378809282224,50.55064783293385,59.99307908987025,86.69873441347387,100.97690793644998,103.3313346464407,112.3168297053181,107.173686535115,80.22487110638804,65.67240221520109,65.44439894285527,54.493552124125245,44.87985665029919,44.67083224362621,28.05035108704881,2.634485365831905,-2.5332264103991076,-3.5224999056485835,-13.387972511777134,-7.97143043847823,5.851491706735816,0.6378555865074023,-9.772382066508642,-13.241303451419542,-26.628917824707308,-39.748424421240315,-32.76885931722784,-26.780151253797246,-33.398894990816345,-28.87526964721276,-16.500672466392764,-16.9025659892577,-16.35939012277267,-6.375470410429904,-4.685937506934463,-2.190586098990359,18.10976903882935,32.324156068027165,26.500938895605547,24.28521536416634,26.37491490430532,17.348457904673168,13.161787376379046,20.181985624576313,16.1286096124413,7.862669987919901,15.813094089563636,23.037854005547164,18.961361817432124,23.104113478832595,29.294125415721297,19.230172918627094,11.408200868097772,16.170973195701325,12.066984037364879,4.118558846650543,10.659726785858396,13.435909196437391,3.666862340142723,5.045843552142878,13.560620618945741,10.368986694406928,11.354764600857793,21.714705159945833,17.485363593067923,7.961547510464863,16.74151517697464,26.711570337642815,25.3772290366061,28.78734728534061,28.102380747875344,8.20679659277306,-5.766727103384288,-0.9802935756563897,-1.4296957995455877,-4.414744938265655,7.597428864792573,15.100828568932172,8.490354900126427,10.783455637355818,15.680556234883015,3.9525390776337814,-3.1962839948386517,7.164958976390542,13.648509450004166,20.330220689238253,42.78666410806702,57.49893818275603,52.45527172730868,53.82566002487927,61.2216310803939,56.59824115171483,58.16473077958124,75.64643299881166,83.0969741849397,82.39645898430899,94.4343654519297,101.52656978243532,91.72346950101017,89.55513527175789,91.5128804577567,74.59190115306615,57.550969209727384,55.031994968407844,42.72659268165021,22.7093213443971,16.810150855162764,7.889705302702333,-13.795973418581966,-21.88741304598969,-21.532345503027095,-36.7797101183939,-47.75994727099054,-38.78012965730191,-32.736317411997014,-30.250106050233008,-19.99785487453074,-27.061195302440314,-58.08186220493458,-77.07763137991489,-78.0925598883272,-79.05855035543078,-68.88522558952943,-49.9301085511163,-52.32443603806303,-68.49001003732704,-72.79431112363139,-76.64430854679946,-86.01595388026433,-82.03926114326207,-75.7493194141638,-88.95386429206717,-101.98046183654577,-98.40331817349423,-94.6196710862308,-87.7553521331314,-64.8414230686727,-46.64038207869547,-42.867338661875706,-30.641251437265502,-14.61996367022803,-16.49075319611119,-21.537452554919163,-16.844057862853706,-17.14278412005325,-13.126789385459299,12.891617967862615,36.14380676823397,38.69226015554991,39.810985620417,36.49042853036866,14.928701656670528,0.6828486847948758,7.011900152776521,10.036094531752958,14.07598521929938,37.13784628448814,55.02175713296517,50.629167411176,44.615422601712034,33.5473277863497,0.6453496641884904,-30.308157412530868,-47.05635132521188,-76.51212185960523,-110.88035213179074,-119.9140058379008,-121.40331327210515,-135.20927049239774,-144.60401683049054,-156.24267619443648,-185.54862632816395,-199.49211139323455,-178.37861123615522,-154.1052234612868,-133.59059647369799,-100.891528729974,-78.18990120297357,-76.85078098067139,-67.59765733987277,-52.23470784851149,-52.3124494955913,-48.2641853152278,-29.546199290639144,-22.070242686057078,-20.91551475036772,-4.7381526991343605,6.65384209910073,0.9704507057298439,2.548530058456711,10.657287872739051,8.059874445727836,12.228251053401383,31.136346018692084,38.89874443803286,37.20939143591203,45.36518642915837,49.578550210895756,43.08610819107916,46.29386261233761,52.817801871596636,44.15030721416669,37.1012287279024,41.886127039821886,39.55247381053769,34.25980205093458,40.25807697123784,42.54193124458489,39.76637176425201,51.549081499174285,64.06079333898039,55.09275588259732,40.81791343992715,34.92773112313343,28.338288790860993,30.480106197229446,49.91630742587836,60.656734922379826,52.85047926164201,48.64162642584935,44.7000965664771,26.72537720460781,15.123690991022066,22.418876089959394,31.93869585749486,49.238537390732105,85.38943795343086,112.59109023455161,116.96104144658261,123.82248973444821,131.72888568580834,120.61598924105164,106.46974414119235,99.17741798119289,79.68323185196603,62.37585987265882,74.99515517925354,94.4728272201021,98.64215654551546,103.26624682297039,99.1328565645951,65.21185103206452,27.49573959659495,5.629772664133886,-19.410952299190093,-37.71287055176964,-25.81295350141707,-9.945541346454235,-10.527793171910286,-5.754160465458954,-1.2884660993219335,-17.907124991896087,-29.41201096633953,-20.491008610350185,-20.87887886146383,-28.599786048678652,-20.873967970363402,-19.26363172294498,-34.075281023541336,-33.10394905294554,-20.79503434803972,-25.767983876642724,-29.002984899170837,-14.32184041411962,-4.556154951370509,5.301305184725203,32.28297828439422,47.41636059696553,37.05330718846759,35.64984464003837,47.457896485131705,45.759528814260506,34.17875974499336,17.053985728953936,-16.984428051296902,-40.54517614232229,-22.470257585509557,5.799642109072494,10.523813921912218,4.116336768059559,-6.322384968165009,-19.47135942815617,-12.530773919616351,9.408187645607283,10.940226310095992,-2.146880725991357,-2.8272649259496125,-2.021927892930341,-10.987345537214622,-17.221319556381747,-28.40071119976595,-53.59092739848047,-67.04137412044311,-61.014001939956735,-63.10889474213883,-73.99464130269021,-77.6740259751142,-85.88132829540092,-99.06191877308171,-95.58404882426692,-85.75705539544704,-88.44249286506638,-85.33506713023252,-68.14242374529945,-57.31969659220922,-49.47753385646163,-33.19607510930234,-26.795094257793647,-32.609112820371195,-25.554249713567927,-11.617886059879403,-11.311255382197167,-10.582446773086351,-1.0548301777762887,-0.8792674937903178,-2.3307174386487546,11.556035276313542,20.08668706505298,14.401417814858355,21.536363018204604,39.370727577028816,47.28538923701352,60.9212951271919,85.13299454648624,91.60555591051211,86.91427652723006,93.84482649085795,89.998346718595,64.68039079680958,51.25672845832317,50.35861286444615,38.681665038605466,35.06455064205652,48.68977806261689,49.73304473940014,47.42910053585316,69.8696448041875,88.71035498610343,80.89191983280708,71.91559524379964,60.312755227753655,28.89567067364733,8.493617387663917,14.44337849026487,11.998968466060333,0.9468007415268902,5.42399573766939,3.342682218199169,-17.000454335685333,-22.47751545897639,-15.8717651358856,-23.917199121491763,-26.31609100498468,-10.88872097532128,-6.8579708401870505,-7.154727177270013,15.334809811573537,36.807146061408986,37.79064445987027,41.3300824737974,45.70864312129465,35.304416844005985,34.71119916957117,52.15362888671501,53.78327177103641,40.271312387509845,37.05128455042737,32.57166271559968,21.003143314863227,24.759983843349076,33.39445572426161,24.174837280863592,17.79870720033761,27.161226958836558,31.322295823773498,36.402161862699586,57.7397432516912,69.19561071770765,57.502344370723605,48.092771046772036,42.21375831328867,28.33833450330163,25.93043969061568,36.20097194904138,29.095702359313428,9.82805778059069,1.9654027419907725,-5.526899103115612,-15.725855144496302,-6.899367448283127,8.98065277558821,7.815766563244232,4.12150907116826,4.322315601803459,-9.803145195437038,-24.538998833713492,-17.820383433111324,-9.937501258598441,-14.154816994920912,-13.036546555501829,-15.124235034097012,-35.31560153406564,-46.18288767621692,-33.085825723300275,-19.229175687632832,-3.2129711630285307,25.958251263862937,40.697891245324,29.80153457422795,23.00383567718356,22.46201132974548,12.65935851268212,12.770017941987549,28.850187501545104,32.58537340389234,27.57466333132495,31.534246618138233,20.602436566696415,-12.910901387040136,-32.74864822579076,-34.533261998596345,-36.684360799176105,-24.402420665090222,-2.207511900914227,-8.854926432901221,-34.54064973381747,-44.275544598327016,-53.32738060325842,-73.42908192660491,-79.22030225632356,-80.70238734106903,-103.34168113285448,-120.39493925885631,-115.64955862138476,-119.51493831122725,-129.2355854136714,-120.48679314281537,-114.68617447220402,-123.55198393770685,-118.11090216924725,-105.60738477083666,-112.96584897444525,-117.77855055383029,-104.50738611557404,-99.62403313344112,-98.87236547782632,-80.39815191590844,-66.18270312229953,-65.50392559727781,-49.22028553129279,-28.353395744191538,-34.93585241649773,-50.45866304207422,-57.01532613876364,-69.91328645645599,-75.21494788407784,-53.89752505146655,-38.71738345799098,-48.01949914113949,-53.000252915873276,-51.74074689284594,-59.76133986439153,-55.4149583164245,-32.69697702961179,-21.838289490189517,-17.345955214504663,1.8388848102813293,14.064108819772253,9.02500042184706,11.776894855748557,17.314557747938412,7.261266350295791,1.413971244174572,6.746774187599732,-1.4305052761510577,-13.119158057912944,-4.442455050442443,5.636502376789281,5.91000765824449,16.73842265045622,28.96320522033425,24.050216851617094,24.924298894473615,40.19774817118605,42.651653309223406,37.07004449968432,42.18894111393674,37.55715360350668,17.083397219875366,10.226341334898763,13.15988543336905,6.241541054674638,9.450871970382378,28.945493517189025,35.550208954665976,35.02122927498295,48.349232614761405,52.56691089832645,36.452823610564074,28.376994674876315,24.92687504178906,5.1906393707494045,-9.103212297054803,-7.814474392285809,-19.48677481344924,-36.70700336974989,-31.847519893248318,-23.304731383439886,-24.767379345850884,-15.43139686518594,-7.301312471782602,-24.82158568538461,-42.11788014438318,-40.77743185171627,-42.754871209062415,-43.152094273619724,-25.380289134472505,-15.092811876164657,-24.078276090132665,-25.82277776149654,-25.17786671471059,-40.16007788012295,-45.32331186023377,-30.07157328452012,-24.438184127185064,-25.536980335073206,-12.723300294044062,-4.706700886390447,-6.397670876381512,9.939787106993471,32.03808325910634,31.55936192820609,27.13391614340312,28.97454135422079,13.647722576288764,-6.459712964116824,-2.99182470738208,8.172224306674073,16.00411543462047,36.70541786068575,52.35833573877214,37.615939879370856,19.347558282817033,18.28815706596001,14.079382577686811,9.945860336946177,23.105375214055208,33.03048494244156,32.60368009932843,48.824305705803155,71.05435589300566,71.56353310973944,69.39916562284373,76.95221339236487,72.705831596812,67.60102993449738,84.22500018121139,100.1669645607749,102.60949163340338,111.77881123154164,115.68546303253004,93.01639372812647,71.7463278906493,71.6647072468858,71.49625787434208,74.06069417205758,92.27801704594188,96.29751634846669,73.99282404191797,58.412623097341864,49.993820771450636,28.33086007035702,13.74294891986719,13.393312224814217,-2.964291852294938,-25.279526697351187,-24.574952343472432,-23.241079441897305,-35.73730393571738,-36.01937867712307,-32.865490095250316,-49.262599735577695,-57.22920633265731,-42.43467830834393,-36.36729830267971,-37.157942174131115,-24.750502174039518,-23.187626615319793,-41.045105224967934,-44.95593693845046,-38.72816213737063,-47.965260748290206,-55.59690520823942,-52.97946207708716,-63.403507474050514,-72.79349219726987,-54.30231956094407,-30.90676585710083,-18.329058542873653,2.7416829848188033,21.586304833780563,18.257066192574456,15.26223045903555,22.710751976804683,19.816238342455325,17.037320589594145,32.06859835946536,41.7952618063009,37.109992609810476,41.44306648866125,49.0073214918651,42.58476696075104,38.78145266259992,41.158612101199424,28.602304258454033,13.642371177380571,16.599061032492763,17.15951199483551,5.34213188347447,0.6252840612702585,-3.760209347640833,-21.68262770064845,-32.07397112734534,-27.545315188552806,-26.923858231533416,-19.091775709086708,10.277516542870277,33.33338237183348,34.386352352985796,31.07152172613356,21.35999049167698,1.9752187535201449,0.16629634313139374,15.990168806446363,16.945651297474974,10.535225380808804,22.35470295858079,38.463722135031176,49.31090558362712,67.78548446976946,75.57713466701615,55.69506086511832,42.007389483263324,51.65484883098552,57.46922376188611,59.23091068177655,70.43499619695312,67.34405336799551,43.64371995389294,30.26087807065303,25.28454406031472,12.056319509105842,13.179934299694867,34.07194902409344,40.975890311763976,35.8723604647055,40.36625846892233,35.08409995215716,14.328269105772012,9.738302753619628,13.722857214576573,-1.4249525176161466,-16.977276383269377,-22.231317317432527,-40.8768259370224,-58.109420401513894,-47.05865825776387,-37.763198904180925,-51.47530130882124,-62.77045808442386,-73.78347101709966,-98.5986636487228,-106.6775909751928,-88.74564590325346,-81.43311964671106,-83.09855219356909,-70.91147231213087,-66.81061962981045,-79.61620806897045,-78.71587336608934,-70.09821893514243,-75.90546581720633,-72.54704423236775,-51.3072721459702,-43.39689474897231,-43.397401762849036,-29.125775557588067,-22.041838882570914,-29.922096324014824,-24.856747489296104,-14.928813468169217,-21.90037531064562,-24.2373550094049,-14.276601226703496,-18.818286222542973,-29.883768744218354,-26.5954273987483,-27.74518834459775,-37.28804254111252,-29.242030086879694,-14.489493682295825,-17.11444986587625,-20.60348172002564,-15.66643797001132,-18.752913069817605,-18.267352059705463,1.4397789373526022,16.531549557266956,16.270346483506092,20.15594104135629,20.51300061974613,2.779277718241727,-10.354722984356147,-8.270007726682334,-9.440296004024383,-8.440458415900975,2.5899010793935693,-0.7965784118187895,-18.495891149693083,-16.403056554739386,4.5115169322237065,22.278947014522412,43.159195632713384,62.93970551124608,58.71567035574734,49.30382436897938,62.58182254433422,75.50462536306325,71.3017086731668,67.59071468325996,57.18216276736442,30.704029163414518,22.106637352527052,43.054218695026464,59.79393018473302,68.76588664616752,83.04846034486351,78.37713172639636,49.42918574676304,29.320152251149906,14.32687613135285,-13.97046408733658,-27.830757571745366,-16.148844633312258,-11.732220639372901,-13.313442554395932,-2.411037137546668,-2.5294096581277357,-20.194790791350023,-25.198629767754092,-27.819833463072968,-51.72348733856942,-69.21986306318047,-65.70748910152801,-68.73863612359175,-73.96643345019855,-64.40783018083407,-65.20041284798374,-81.70458915712248,-81.30862283925515,-72.13097862137512,-79.47423590161877,-82.17969449799823,-69.07676422316409,-63.63490703008791,-56.78868412274193,-31.293679980430106,-15.862287559573307,-22.79347012825561,-23.992067441443538,-20.884691589472276,-27.3708384113329,-20.516271151055648,5.7723324339268665,23.50910896174348,35.26012593749002,55.16397929682573,61.04156162023549,48.19606840163011,47.93194187968021,58.758417243519546,60.34084101179489,64.2807514807421,70.36445239762433,58.54380805642293,49.825512566433716,69.20067315832414,89.484543615395,91.99115380756123,92.51720319938859,85.7207675025962,64.77204733768482,55.34495951003861,58.36632984729803,43.82485043038312,18.841756277083245,3.5681931895826007,-16.889836687010632,-40.95006962286391,-41.26628528027615,-29.389182491489,-29.679912815425652,-29.679124639194832,-26.6728471502864,-37.49483420135385,-44.827643872408466,-29.618494052296143,-17.53133082762812,-21.395340266407366,-21.188323509676852,-23.301314163339143,-40.22344307041431,-48.181509812971115,-39.41497606986591,-36.069431363001705,-33.38759568766412,-21.818025855456398,-24.86378259311913,-44.671692502814906,-51.396981635348645,-47.218338567815124,-48.79600887207473,-41.190253272086416,-21.63826594986991,-14.151463173162798,-12.550631511287778,-0.5686563943784693,1.2607883995483078,-12.55622965045892,-15.325754829765447,-13.717573110316916,-27.57973341710151,-37.43229113347157,-34.01050508753029,-37.00927130070344,-35.91843781150901,-14.92508693195978,-1.3545589362606836,-4.252745796134915,6.454886351715686,26.781505105351933,35.53204737967779,47.871824342645084,62.427526342584116,49.40805202046946,25.206953940992513,22.27211152821549,21.97125395648685,13.015143974924293,18.80768473437513,28.5436722567502,22.43025743024296,26.817654705674506,47.37052853059263,49.29815521543545,38.55117025645602,39.387114724674454,32.9335728894385,15.142299925940932,14.839099203281663,20.148894189268265,7.572108754582715,1.4449794320870586,9.274484585737078,1.3474952814759904,-11.611635844831046,-4.393587481652021,1.2970711762942733,-3.2005750991691446,6.412752312604008,16.362096994425695,4.202102486008519,-3.4295828596492957,4.671417831447132,1.567010065042573,-4.942265348083892,5.978306858990236,14.37455302124873,14.025126116404453,27.141538786808805,41.770521951485236,40.475861396676365,46.78352920278702,66.07139857537712,70.66839271626372,65.62574576472142,68.97586243366379,67.14191669841293,61.30861968334743,70.75784026329663,75.80140700831927,55.91782310768643,38.49838900181416,39.604747255024556,43.195211611398925,54.65342505695495,79.11903676754736,89.0615709930589,81.43261717467801,84.20668110081863,92.02127157479282,87.76711231730914,85.91257841081998,87.96638751240418,75.496369776929,62.09763232660347,65.10811152226586,66.31420843686155,60.66399303153334,65.21410672933372,67.60123567133284,52.39674159688634,38.214299401249605,29.436203555555863,11.220216206506088,-1.4331871869978605,4.877475667282304,9.161022525784295,6.521577878219659,12.013009372896477,13.044760600177252,-2.3134107742784833,-15.04480131144804,-23.575491903632685,-45.94418531134574,-69.13934139518668,-75.79635076569969,-79.57612240428628,-81.86088297236437,-69.36511270321945,-62.43162941374216,-80.7247547117675,-101.57598742642796,-112.94598875646919,-127.07127292828598,-130.61648412273368,-113.6847964545058,-103.21526735918444,-104.09801709146892,-93.54978924347884,-82.50019825839792,-86.92972686446026,-85.60212503503087,-75.392610612653,-79.41511971108902,-83.23806614922843,-66.26844710512135,-52.13983908154462,-50.03258011006516,-39.22227589246116,-33.5026280319514,-49.52130682482843,-54.044189937386655,-32.116951397891285,-12.42528396554314,6.155082348188374,34.471103044767354,40.187789428648735,15.079089014034254,-3.6222666642012573,-17.85384034396044,-46.7848418915382,-60.71041662205593,-46.363423903398285,-33.69444496796382,-16.112725313603274,21.66425349685139,39.68428939344191,20.284680764333523,1.1634642872998926,-11.983682907655698,-32.03156112314679,-32.51719011173566,-12.787166479148844,-13.664421917096094,-26.38803424981011,-19.72399302923687,-16.45792173047059,-31.50247936439748,-41.21086925100883,-57.55573140229245,-99.62554609060172,-131.53100974050503,-135.69525818925774,-141.9432297012112,-144.92147071493255,-125.12713272982424,-110.85334880608386,-113.38310981302561,-104.632731429065,-95.67558286907716,-109.58646356280016,-119.26981464581897,-112.73538925898396,-116.19329623431553,-118.99263336139953,-99.78458006320753,-83.67824793611909,-79.90661510299954,-63.39139079965365,-45.42830283916969,-45.815465392895206,-39.92174746697047,-19.140497023583475,-7.340768151046202,5.11912013232179,34.72410863096243,57.29786661663434,65.51429794579994,81.79467668298538,94.78501997370523,85.90578428811097,74.81954244357777,67.47831706773366,48.976498286821794,40.375817048269056,61.935557508785195,84.28535295017586,87.13975947687145,84.03861391751262,72.65879762162814,53.38802543252817,55.87152833237843,79.46133935295848,89.46840209162701,85.96294858273991,84.64577667568683,74.13527784777064,57.02600832685959,52.660946467710225,47.868281735446985,28.58677519257087,14.81142474531827,10.105557330652408,-1.7780772232236144,-7.063001635210552,7.594436917176037,21.867415455174008,30.359213512823047,45.7476874065773,52.02623362018404,37.56549899283954,27.43544519673518,28.934903536951524,25.228258818775334,25.472628269567007,37.22898193808751,37.19407827618617,24.361978421219113,21.546824959444507,19.603259314634563,6.052858886823597,1.163075814542854,6.60966791648045,1.6978976686646434,-1.8553392936554955,9.737066063431334,15.957896479392572,16.61756438671734,34.554902925893245,53.48685571379686,50.16698889237897,43.26613009702522,40.28667781052606,26.38115334174757,22.621913030837568,48.76738882333904,72.18061979195765,75.94257185145199,83.19791319502228,88.58837021188789,80.3298516925234,85.92478392151304,105.81404107970768,102.44779013145481,83.19139375306352,74.65278260969359,60.78534050641777,39.63606569322075,38.9678938973712,43.43658557474552,27.45273052563192,17.197729330883316,23.397489515385637,17.94318136538069,13.617945419465194,35.91303957279104,55.49719446804175,56.63231969342175,66.76073625721706,76.06638751652663,63.315445619862885,59.77927850766581,75.27397219569849,72.45890414053864,57.39319264970439,56.50958707890421,47.06014387472638,22.89336673587261,17.560508558411406,19.05908923983178,-0.891965256381507,-17.18053658928494,-22.335886580722345,-49.00505081526603,-80.72085064001945,-85.12707566045691,-87.76928845569226,-101.04440858998174,-98.30969118214671,-95.23062074029487,-115.1243598676545,-123.5518467839645,-108.7969185639325,-108.31711106013206,-116.17889509225722,-107.62307898598293,-105.96283288046453,-114.57697544040491,-100.6484943792529,-80.42179922516809,-83.62042580525147,-85.77210942409877,-75.95581461822022,-77.56337795889917,-75.35806789057798,-50.72853102147484,-38.151828861020434,-52.137102072810016,-62.19025614815872,-65.5678948572091,-65.94363324507614,-33.32240030073249,25.354261332083976,63.43808960746348,82.0372888153385,103.25437076249094,111.56261153555315,104.86416053730719,104.73907791087525,97.74838103950906,69.56562043757793,47.04068199183597,37.34160630799816,19.876050195392885,10.264351077933469,28.294665485141415,47.274979950372824,49.420161367148324,45.070247813899975,26.08799644611851,-4.348679413427728,-11.215294322270948,2.8610509076706734,1.2662861719321983,-12.510329680431944,-18.38511502020289,-24.888765978981326,-30.400334304173896,-21.952161312909748,-19.75438796214877,-38.37328772350216,-49.745647656052384,-43.8118539127141,-42.329765328045674,-41.270197071381716,-31.393075073265248,-30.958936470415253,-33.98972654314116,-12.597518189088117,19.218055791526485,36.20628650109606,46.38941023297025,45.29690878000011,18.19640925890019,-5.378392939763186,3.0465685093187425,21.71746103611312,37.838245497640116,61.73330015546768,74.5754064953338,65.38821252910421,68.15304492924224,87.37782152624102,86.71928233389075,70.44882773814756,60.83812035265851,45.35028428335731,34.35084556691994,61.08524894765649,97.46502995310749,99.75351771884445,86.70309530815848,71.6476950723729,36.54605205331508,9.976754445124868,25.241557402786228,46.33315354143805,49.29343514530927,55.843554416586855,47.73702533990924,2.9266298173534455,-33.33020244702577,-38.51556382389532,-47.41769549794975,-52.25278352656818,-30.41090940477303,-20.549433577623006,-38.126213552921854,-44.72783987323458,-49.5865463151831,-78.17851806966267,-93.60775125970255,-83.64422861863765,-90.90066923499202,-106.12489496165043,-97.15070822758223,-91.73178180259582,-99.9226842880343,-85.92436922378135,-65.47853426276194,-71.6437968382035,-74.64283458293701,-62.25558296049426,-69.76396804122525,-83.62628864473895,-73.49412207528074,-69.07213196480342,-81.8253979993836,-77.58095986405701,-68.34773764237356,-80.03159305915364,-82.27691947376373,-64.98403833719604,-61.39911536051927,-60.111240141442465,-36.3532110943107,-18.05235578375579,-15.395521814284589,-0.28393862630150934,14.569567510623743,8.571429548642033,12.179240848203467,35.36113647336831,47.78381188375305,56.34401553315535,77.24098684090978,82.17314929714408,65.56538311206624,59.198490175585334,54.079076517487735,29.90504243364194,12.779497414295697,11.876793478247551,2.441310098053709,-3.428251757244102,12.431187776571702,22.092009525083586,16.44383713398806,21.08198183710565,26.976837112352275,18.1296733654073,18.364380656904448,30.101755427851185,25.42212349772136,15.866042850436465,21.957337106946337,23.92857194278241,19.031676346284172,29.127291968217726,37.95168255613743,27.444778978938906,22.710915326521416,29.314464463777316,24.183137543836164,19.542729632865946,31.418974658905846,35.84326092934711,28.094930053989984,31.237475058720676,33.139732936883505,19.01678681848815,15.014315555627187,24.63641883104046,20.08584738097759,12.566828766845957,21.690963536519426,25.818752886867195,20.88698087826223,29.49794801379196,35.73181030158401,20.785915194692617,11.481526404183002,14.131312973566525,1.4619071639238728,-14.985914827444839,-13.902161782864887,-16.150626535638377,-23.4963911260669,-10.10200700947951,4.308434494920634,-6.176930849645303,-14.950113903831523,-11.76390130891828,-20.049958026909025,-24.336739472217282,-6.212122805220874,1.0652250605761258,-12.847346108620409,-17.67363560642668,-23.37804553504711,-47.0809747604808,-54.70950125219518,-37.988890104017116,-33.698818782340496,-35.632723770567615,-23.320798423955033,-24.5132888646441,-42.37898597330491,-39.55005438331068,-30.31363160036706,-44.66852256789857,-53.86206470317345,-47.11110531885799,-56.011645535009116,-64.57081130398292,-46.54474742730055,-35.82299488096229,-43.30497265561141,-32.98964035819599,-17.797008959078383,-26.050539471832217,-27.91380956646726,-14.590816197339219,-21.956095471002207,-34.35092915862476,-20.42776497837757,-11.067083091240955,-19.13757957151617,-11.615022844990392,-3.426725201277979,-22.202819915963325,-33.73223785365302,-24.84739353957307,-30.644958817769677,-38.51037104267,-21.63273086808016,-12.505947558752357,-21.531974983994886,-12.858228708153124,-0.5243960711874527,-13.32678568962194,-20.099643331349174,-10.08154289610006,-17.606251312277667,-28.07546526592167,-13.881123382468807,-6.391963221547545,-14.24425012471869,-1.5542161900736895,16.316282417751186,8.878456866933588,4.377354917683823,12.478726466473862,2.4733491463426978,-7.624651741037537,10.029376396968068,23.09844480749069,19.553832964641906,31.58250218085487,45.55444161260199,36.06516607803177,34.10975989502811,49.183015293134446,48.52247753956532,45.35980461673798,62.83720381804905,70.09042649928757,59.771195890957564,64.75706371980468,71.83578853569098,56.88346828563361,46.28593839452203,47.36174592037836,35.584283545341194,27.126121271779347,39.06149452415946,41.21938078399353,28.248559563638224,29.909401178651017,39.576020164363406,41.59741853246849,52.546562346485146,67.34705648160183,62.82282336480134,56.517891496697736,64.08569260153058,61.08324570675133,45.09736152263312,39.74309012472348,39.00234088067727,34.196584562836925,40.002631719973856,47.664965520264566,35.23095696861986,19.094398156651025,17.40963935395595,13.019776876250202,1.3404254141317686,-3.6752809863203995,-12.816230037008642,-33.22897683417664,-43.86893125764797,-45.73740216995803,-59.92189040360152,-74.97424186171257,-75.64413627725138,-77.16904549994894,-77.68120596313588,-60.49959737609095,-45.28301363651195,-48.11139075018391,-45.55369542812126,-33.249132327338096,-30.531067409246397,-26.453155411003024,-12.296397216879846,-11.135464562727053,-17.224636631392514,-2.494627263679326,16.66776211324793,20.709225627570582,33.30404309835451,57.16632798411155,66.85543133993087,73.11721989688334,86.71502482131754,82.63858264045905,71.73455477718474,91.99062726087091,121.35328415081767,122.62245025817664,111.66960693668025,96.21575228843255,61.287580194367216,32.399093649807725,28.85844451079952,15.135719022489397,-11.956402903220628,-10.960769776946215,7.831312042768043,13.28334745350066,20.891780809009315,27.40113057402419,3.0960691698608738,-24.203918330555616,-21.51550127400205,-22.711860608980107,-39.72134624261798,-37.52033633038948,-29.065723378972244,-39.72832469477076,-40.35101216264203,-30.956909815480053,-52.5841142895577,-84.87507962640483,-91.79229129632094,-101.92623436681325,-124.07179647780282,-123.71653983619566,-117.6729399237955,-133.48470363908973,-138.9340360859745,-127.75824586179749,-136.8681450227672,-148.01362884123628,-130.95818904402665,-118.37060474442202,-122.05530790498824,-109.76771521361583,-94.1790682332754,-95.74894429057184,-83.25125185723901,-56.276981214019706,-54.49063391958708,-63.293459275711136,-54.79612406780642,-53.6005644095326,-61.913174224514535,-47.282974655282075,-23.46990332839422,-12.302290057695037,9.295816370917715,38.028020666195424,39.37063285870923,30.33072405764333,41.671604723547816,55.461812127121355,67.69076222972916,98.84322588038125,122.21909610983475,108.85644997634795,88.27200901560653,79.57877226490578,72.18295358027699,82.33780129642275,112.46724439928579,120.09908892918753,98.23833450346098,80.90102489196993,68.77029444698434,51.558899194263645,44.07813784598781,41.46962202664176,26.83176281942301,18.377186156789847,25.825872245764774,20.961712861396087,2.0687353640048656,-4.027685432177163,-1.827017496414516,-0.26899226563136147,16.14120827612725,37.08139916215982,37.46934560884151,31.979158618959353,34.748931229474124,29.34548369186242,24.300579214070638,43.43428627806991,68.49930469103134,78.45211144618565,86.04730279076071,87.17410446965988,66.50679172688217,49.71822248947574,61.180053750356834,85.01396284711048,116.99191881396699,161.7664522426308,185.02620752991572,165.67302676658633,136.18660521833098,111.12452096724225,75.38930415327923,45.635462864537416,36.51951295087437,24.169300727308155,11.887340298871514,24.397368666074836,33.889203124797774,12.593212951116122,-9.828766932103177,-24.720573418101342,-55.18857080238217,-77.5706784606935,-68.602791796011,-60.78164531060421,-60.02636319328687,-39.16751072323231,-22.617790727799946,-35.348384244541,-42.469636697530674,-35.96084745183128,-49.49116501206906,-70.96032585190953,-78.8500237328072,-99.31192677693109,-132.13282588386176,-142.99702598163663,-148.69619357114902,-173.404541073538,-186.7218050119067,-181.79147751466303,-187.4827041598254,-188.93129661421307,-169.353817337279,-159.78308426947615,-162.82238648593605,-149.28725001633768,-137.195553452127,-146.34314449474053,-144.65626230408395,-126.49435846381652,-121.3706941147756,-114.3392112997957,-88.03002191049407,-72.71837699633734,-70.03063342595766,-49.84606679117519,-29.65080729529788,-32.892616244713466,-36.678987792566986,-36.307803482206396,-49.81399347842327,-55.02761999290172,-31.450665468732318,-4.555623585755044,18.228222557649993,56.32702569228023,94.00213452733934,112.55826770198883,130.20103772658933,144.6707569375803,134.93975215495175,120.3594529579573,118.60526099902077,108.90845001099851,93.61498980291707,94.89916959655082,96.50139341512771,84.07988932602203,77.74834565402102,73.81070313462787,52.598303689494635,32.78957041591747,28.19206884747102,17.658425061285307,6.594142880142398,20.36369469221934,41.88152105091564,49.152909888739686,54.81034555633873,54.400461247750876,33.10334875680547,17.458754328364655,26.965368842867598,37.81985037884036,44.97901018901459,64.97312394912146,81.39306852806561,79.37558140499641,79.3174895732201,82.19432800512584,73.06794993692198,74.04603893452479,98.746844874612,115.93389308012317,116.10213901568889,117.7502124927193,110.78904230864237,90.90723793429112,86.79367348333733,93.68393307186652,82.87623731561744,71.84376025127449,78.6035907669311,76.87586814466368,61.46094431245407,50.24544210082951,27.772477559126642,-8.307815202616608,-18.594691818289327,-1.8507089213334469,7.461037649973233,15.751721603327816,35.08432156557725,42.0234386970633,40.243904886561594,55.056882355050945,64.85683841060091,48.232118496008844,30.331234265956624,11.86461242686548,-32.498160550662384,-82.64692110089081,-117.98993931464116,-162.18276009883675,-208.34477981800313,-221.02758908437738,-216.7685240082579,-220.81744237757022,-216.02619128759153,-209.3642865691662,-224.95611360374068,-231.73694704322685,-203.64738464873435,-175.00706143770384,-159.76616974984418,-138.96059326341606,-128.4774893836326,-138.49129956099944,-135.74747906740234,-117.944286886233,-114.02035731220867,-111.66116377440906,-97.0409506180835,-95.95065638303666,-105.46902048201746,-95.32711269220792,-76.24713443422473,-63.64909237708714,-42.54229077504206,-22.498795650769296,-22.94924853678777,-17.56727402803818,11.846135577259675,36.53732992930048,43.612516214485204,42.44411246671906,24.183472959187654,1.2587415984213814,15.921718609249893,62.06109581229434,98.40784751381568,123.25707405039208,143.70319853741202,147.16511843979953,148.7715644655461,163.8566790200243,157.5561010028996,110.99070117801499,59.00732642364126,20.176506873437987,-10.00925201065628,-13.889753078652202,8.225391740489265,19.840926330132902,18.894560265303678,29.891141159785803,40.18316624445185,37.821588449511545,44.72183226071377,58.74096792404727,57.86212828285394,55.66853047243712,64.5949943510434,66.19210032687224,65.95904735801527,84.39062228476384,101.71436344123913,98.71315705539332,93.83751272591759,89.2245329601001,69.69209307637074,54.54324726663583,59.24511460151863,60.54603657367146,56.30598647730602,64.73945846184905,66.95641245563439,51.36637460125307,50.614018563723874,70.03570474513174,82.4922792992025,92.38797446504906,103.3871191537347,89.98244906935726,62.547369591344825,56.50153005638438,59.56847565487169,52.42742644757739,53.92421028051188,60.64862902743725,48.72997746444142,36.46555310346084,38.51942508654178,24.991432541018607,-6.84400495500817,-28.60142536789014,-47.72212672292117,-70.42111020446931,-69.32178508672922,-54.735608210011364,-63.6158406220715,-79.90851013092659,-79.95946545544777,-83.27157075606578,-88.26598030069017,-75.02613278475502,-68.0213506172723,-82.35916141931521,-85.21076379708938,-75.77994745604065,-83.3212141754868,-92.62834611052938,-87.18498823345371,-90.95768753534801,-100.51276862294688,-90.5737607138232,-81.09847589902714,-89.1983218331171,-87.86421290260193,-76.37648124401444,-79.86369118014441,-82.03521022982629,-67.65791691075495,-61.81423850988066,-61.698431087354685,-41.018334167876816,-17.721691919191645,-10.045125358699426,3.9730362224670452,23.223494185001094,27.37550016477158,35.21752319906741,58.21502250858161,67.4297876536125,62.085335407056675,66.19625824409476,66.65992608621056,53.39509623844341,51.80094393119891,59.12427469843012,51.58949014869039,44.56299859734002,48.20876441854556,37.5263285979814,17.967026726279563,14.491838290233126,10.228420677273341,-7.9736119511423125,-16.161237960074825,-15.63202020328457,-25.672725136098343,-28.773077573750733,-15.9820478448919,-13.58385576849474,-18.157516656518695,-7.6035969787561815,-0.427765066057072,-9.834388895065153,-10.525890389018198,-2.7246011074015692,-7.3933224701091085,-9.536260551766492,-0.4734810137026324,-3.9532972641703057,-11.827745194845187,1.127715263249649,14.21548220995168,7.508314305840373,0.0975428783222202,-7.705384048850389,-29.394653655403747,-40.862159819265976,-28.508489262816095,-20.306349014404674,-17.313595115436517,2.4386257052240854,21.51544583825774,24.171158163007703,30.66583936394695,34.671871613717464,13.480633730173377,-8.56786214673518,-8.661038213044446,-4.949680238580116,7.174425043675597,45.93121949328575,81.18185701531347,90.22001277674401,99.68291575536281,110.5087310460939,98.94647163000121,82.99201855475735,73.35697382088428,38.57214706161544,-11.296653538562557,-30.981126399182454,-28.725105962495793,-24.531522131373144,0.03965125550796422,31.651106436670993,33.74236049139307,24.05685707978482,22.503416768908256,4.906190128524041,-22.27084984712984,-25.986500028253566,-21.833580834348286,-30.46202722099909,-32.65873176913299,-33.92060784226126,-57.01254092259066,-76.03220266322369,-71.54305681225732,-72.86190321199895,-81.02017679693147,-71.45399296516581,-63.55840341882413,-72.04537072142293,-68.48876291339025,-56.00956053237724,-63.51984209397021,-73.75276254821694,-69.87097169068699,-75.34252828869427,-83.73928773293318,-68.8425801020799,-54.588367044310445,-61.46972462624422,-63.099360200557996,-57.97644995300765,-66.96352898199338,-70.51919171316162,-55.77909275307478,-47.65688676802429,-37.85028956770996,0.5940015950534203,42.16428199068071,60.183481638036625,71.06534651751252,71.13036732592613,45.15480633239527,22.974872179160712,22.970490065475772,20.505656481666918,19.775704199828148,41.65741308819534,63.16362108113609,67.07846538680926,73.9001305777685,81.30270182201292,74.46087270515719,73.90640873101432,83.42244980740762,70.62471614846103,42.121615768437294,30.822998106654122,30.293648407811325,31.05490798589991,43.65347737449547,46.928850260211476,17.292887155506556,-14.882115396422487,-25.270989363123356,-31.32254143075484,-31.470015133260006,-14.710844095699438,-6.303754235076728,-16.468915462074538,-18.303031163003407,-12.951028227408674,-18.27244673097234,-16.562836608214592,0.3366669612970705,7.161457522628108,6.4625741125728835,16.882645924828996,21.48681316585682,12.116790563167125,12.982926912381334,19.431690278604208,9.70902582285365,-0.40487473132469365,-0.7580063017634902,-11.475170921922357,-22.66740778904411,-10.17044325539469,8.035437177890817,18.18549972507114,37.53779647172845,53.582275784857245,41.95466874682532,25.24770359579751,22.075298361760776,14.454474326660508,8.76931982894726,22.44706687553319,29.537897489942324,15.83923231470727,10.165749804992782,11.77625916048142,-0.08831211019220753,-3.350307779068085,15.073127557323176,27.67975867991374,39.42070384947492,73.56670533099548,102.95244684025164,105.48593478123203,104.65434476988646,95.23849372540872,55.56264067814947,19.825014656876203,14.443973107172429,10.33194122129909,5.655378017386878,20.788827448184236,26.61522429580005,6.278849354013262,-4.391826164986762,-5.4473363348114345,-25.11554293272718,-42.03137224542991,-40.77263918902092,-50.86182105282652,-65.8225172647854,-56.11771290541259,-45.06255549300732,-52.32752666433635,-51.860192702551615,-47.81920687501375,-65.20418048253568,-80.65680982801356,-77.9567311804324,-85.56363827098461,-98.51017569303698,-89.29235196553834,-79.8152823472928,-86.88119489025547,-84.0189347637607,-76.30882151443583,-88.76722127199481,-99.53259626763924,-94.680511261638,-100.71873694805141,-109.15266988618855,-91.54949705566801,-68.15884540843945,-55.06573605647438,-31.12749175085515,-6.9299232492463565,-7.477754628009135,-9.04285907577816,5.427791456595788,12.299197734059124,14.60380538239424,29.634522492139528,32.41223584349227,10.762424785242702,-4.32012869587015,-8.068755485399398,-13.694236327872867,-0.9488107393708543,31.940680728531117,46.71255128919924,40.18568673446224,36.791927847981015,30.22802647316874,21.857099880317094,37.152353873811116,62.874397769655296,69.44199104033959,71.04065911908701,77.58770207684367,67.49365871766148,48.67299111424336,43.61736933709843,35.175707382299166,14.174279229122835,4.864335353030702,4.479685279284026,-1.8159005789409561,5.8406282963515395,29.407408612996342,37.285680817783046,32.90625165282234,37.99754150587087,40.09312088508954,34.85414410782872,41.556820245208996,49.36148717883545,40.686768689848094,34.72986004008756,36.6061406370962,23.398936914603738,5.452139438929961,5.9134715963590345,9.303836396672374,5.287793126010878,9.385545352622163,11.414126828413492,-4.937202126566749,-17.523105449163143,-16.3052382808237,-22.464427474775768,-26.10520196462571,-4.76583987210412,22.453437650788054,39.93484961243231,58.979573563595864,66.07442300017868,44.8920144128803,23.44143545444491,18.176423353841663,8.37880110505242,-0.3546752037430263,8.893158834587771,14.656382594085828,8.451523162422522,12.763111520097251,15.848623403489821,-4.111022940261733,-20.91497782319056,-15.745005143462542,-7.571009127193277,8.019241183818977,40.72740186363925,56.55649921845832,43.07991593751184,37.69986497318337,46.18141743841665,45.368784075535785,45.566859421795904,50.18029884325112,34.3472364013403,15.526866091399102,28.177546577506345,46.94656934364712,45.55974028317773,45.013403849549654,43.27950090025683,21.270124684437356,3.728801554920874,1.3810225730867178,-18.078521008550712,-44.7443610879664,-44.4850774084838,-38.49845880871285,-45.82967823745643,-42.8253383756325,-38.218405700864814,-56.97490565840581,-72.22572279294073,-68.2719791590574,-75.01884964817232,-86.36456814868778,-77.5034364426148,-74.6806130547231,-91.68321386721732,-96.25320318890758,-93.0411610464576,-107.91184996762902,-117.69846940610913,-109.53132527864278,-111.99918677993303,-115.91238657792192,-96.17567465573515,-82.34550881965474,-91.7424640856542,-92.37581891854536,-86.08055382123955,-95.14351232372371,-93.97242120233628,-69.86946157782008,-54.89824860817605,-44.674297247338345,-16.119165244239277,2.644157869146225,-3.7544832880513654,-0.9443184016791779,11.445690385274242,9.893933732156851,15.98140596072402,37.50190814804209,38.39551705055152,23.84359807346331,24.000895706844368,20.43248337093597,1.3222634914142253,-4.377668388152441,-0.5873661902988054,-9.691812729650836,-8.823070561836124,12.90709025507962,24.368833128261528,30.38864974601556,56.85949909158888,82.61489530082117,90.43258954702259,97.5313784149871,93.24096962484663,62.530548330211076,38.97142931332042,38.78311001775456,33.857705879912245,25.912314662164757,32.23913344855721,33.33315456828312,24.025734978049854,27.802086493960182,33.15601819842167,20.872403939749134,15.603539209486836,28.517063692359123,35.599237475309934,41.52952558175807,59.7677589289448,65.44756906952362,52.645389665299575,50.95588758748345,56.21399777011507,49.744241938217584,49.43596275649838,58.472234835234254,49.597435149397356,31.715738720965945,28.398443862694176,23.442864649623306,13.41671426237271,25.78566255422624,48.29335350066123,50.42020779708376,45.5142967908163,44.24474765708658,32.591808767308635,28.324394988911568,49.62970722187091,60.479231766477376,40.182091993735916,19.778646955592166,7.408712398282049,-8.339645897263683,-8.479727929163314,6.0567727111979845,4.408733311147243,1.4709912416707172,24.60280184726146,45.74095815109843,45.9705352502183,49.63815090737134,54.09563068542244,44.01298160822729,42.45978857141149,51.7703911601067,39.20454486795825,20.17111474916733,29.72085389440312,44.40814613422606,42.91312182150414,45.65521001044226,42.22953801448434,12.713493041621,-6.750937193419741,3.4665264842237358,7.228849661040009,-0.24352048907267942,-0.5008341165940129,-16.756472572975696,-51.16561290924721,-60.68543980572841,-50.03765118255393,-52.36540351922903,-51.354099783341006,-38.771007325647616,-44.606383244891944,-59.64744159382812,-59.207068371463905,-68.57269811723761,-96.31253596331103,-107.126506277565,-106.71102213234933,-121.4575954999209,-128.75724360480265,-118.49422167694016,-121.14847517827252,-127.38366026198999,-111.60516730817184,-99.9656263872926,-105.3827244763213,-98.93286204304343,-90.17534364713366,-103.90489418156434,-112.71318923798776,-101.58002417340722,-97.68061367415663,-91.63334768413661,-60.99111415664093,-36.206117226508255,-33.234904885637334,-23.73295573385172,-14.252979404305254,-23.416096620060355,-20.363782860848765,6.733818549460322,23.780275292644944,32.511840171324266,50.30810801841446,49.60113496087516,24.383510735950182,11.852137200698772,7.536781562093481,-12.016540891809456,-23.23830660047768,-16.001852930198623,-17.789767485248962,-19.065252183227187,2.654098590253348,23.81574189102768,34.73611630423295,59.04940808404622,81.93183970462972,75.57342383158795,59.81197248038128,51.84468549982818,41.63686649311029,42.83069726746954,64.31749375528831,69.23804729146866,44.32678512708166,22.433226384609274,9.47072694667411,-4.522855311030541,-3.4469861106422597,6.086118238072338,-3.9888120730734986,-16.164613123435345,-3.1432720575464277,15.98835403047485,28.709237607777563,48.60671310889634,60.11303368204065,46.93082345278492,36.27008847044618,38.10288384834211,29.912268935816456,20.262188506444055,25.11871282827849,24.3147356980374,13.909082959014741,16.92997134932583,23.714260484084996,17.054964066264226,17.192477679738438,27.152670643475258,20.405722826725594,8.470567975892214,14.940576278395511,23.019626328961866,29.404142807873985,52.719634539597365,67.21431620111048,43.82755641431683,10.81355320311938,-11.798687069370956,-37.16925258988065,-47.49667952403261,-23.950173907246707,1.2008005906979715,11.952602922196284,32.7736387622799,53.95274625358637,52.657640647096876,52.34407645403498,61.464337378757236,51.0743758797764,32.82710455542667,34.925214628333165,38.93491701436957,38.83638546254194,59.183602245415415,78.63483981851608,63.91448638442251,41.02439764663447,30.168129967540246,13.219147249512604,3.0037275680376534,14.47444289150496,10.298556226545072,-20.716513660818613,-38.882097014205115,-43.88797961678492,-58.075950252263155,-61.894065832126344,-52.39588734093737,-61.25081007142941,-75.57989303091297,-69.72506278941573,-70.29622791604578,-86.63561573354409,-86.67131416472705,-78.5438833498249,-86.63640537812252,-89.87288694225322,-83.54416352096938,-96.08909955417275,-111.46680187723065,-101.66315947230598,-90.95603985701368,-90.86116000712724,-76.02367071176565,-56.157158842812024,-50.28876985850222,-34.60069192152564,-6.847672455951667,1.2403869113517745,1.5840516840117391,19.138958887080257,31.85829119011168,29.46043657441853,31.530934450656105,25.32901500861686,-2.376005312256659,-20.411656850232234,-19.103550697460722,-23.352848644083416,-23.371858395407898,-2.400315279094487,15.11562138254109,22.657132495492355,44.078607943182476,68.43854713094868,76.84295164275628,86.79524551812129,97.23491356481438,84.80915022120159,68.78761260565295,73.54201871426073,75.97430601467723,65.8282993496926,62.79239368118133,56.66512608945516,37.32281486408474,33.874820440121205,48.75115980375388,52.45027153718998,52.637404415049346,61.82233081362487,56.80024760731983,39.157264204974766,36.33685720746147,37.307660890181566,25.446785485869558,19.13747549333125,17.763550843742124,-0.3853179746152007,-21.73843804848434,-30.27241926086178,-44.02227895743016,-61.865827981393544,-61.49461784514877,-56.19059025719051,-63.85005594958487,-66.36445746599907,-60.94476413114441,-67.8201865912478,-76.06951561398753,-71.47355674961187,-72.88492357292643,-78.04786823685936,-61.028694154924914,-37.003066024200166,-31.60911761173375,-30.715108717840963,-31.224356796721704,-51.54511358716406,-72.9956110652706,-71.63934070806805,-66.08546278006224,-59.7262233985971,-29.476282485188406,7.623450300607955,26.307294562848615,44.512215402304435,63.81113306943246,60.44637199896104,54.23877837993395,71.57165656265369,89.98625671713978,99.1885211109826,114.77246429788872,114.9870039819589,80.98264766343274,50.218529119633814,42.07742249950718,34.53847909280206,38.42379301342854,66.65563161628185,81.17872193379733,69.63855532528443,65.49210916332623,65.41347382472657,53.513512622335256,53.90651591491819,64.6835479621438,51.00901058273561,29.87286802620364,33.4975739539003,40.05861031340149,38.260575098218276,50.28304576093376,60.80395212103478,48.975092300549576,40.62877796550977,38.03456806167615,8.921927029488739,-31.226576840692406,-52.812525060768856,-75.33631540173403,-102.8737943875203,-106.93787680319933,-101.8951623373163,-112.56584808288554,-116.44074217849044,-109.50413506695367,-119.3446330071958,-128.34475750801923,-110.35361337036,-91.49879863340423,-83.0432493166719,-62.690875235526626,-43.72385512921834,-42.7236508883925,-32.770437526818526,-11.001403287861566,-8.069548550524807,-13.771805668723553,-7.366430991956529,-9.39755031382367,-21.113480324847448,-15.673474837324981,-8.386610143153131,-21.19233706192128,-30.056090292314124,-26.70278208927189,-31.14801086988201,-29.238324961068436,-7.115519680743469,5.969806087317973,3.351453918194009,11.482786181329748,24.897685809668545,31.42661973421206,48.03131146590305,68.01961816878891,64.14745538978083,49.45178581825017,42.25685854714838,23.902087259004094,-5.477626815955618,-23.81075542697843,-42.889573386359984,-65.0180695357967,-55.59530348872283,-22.89620218092741,-9.153515924693883,-11.152195916006153,-14.695940795178805,-29.29966201060482,-35.506826594566576,-9.14878329116743,17.2098551463151,16.618044619903188,16.417568409688407,29.25724132507672,38.81661738117015,51.29312622302024,66.32753505259095,55.269621214173284,26.650963953252493,19.805391388050673,31.696700495338543,43.78361508141434,62.89850809524164,76.23495739063847,60.41010093305057,38.30911051138406,36.84184374984676,43.579993047503805,59.028014910399556,96.0933429951926,122.63922269855611,107.64601138950081,78.61019547029926,62.074319537607074,57.3956391044605,79.93448321547407,123.98903865042175,137.08871798720392,108.61586724577481,81.07512282704113,59.07364651183761,27.382199535569086,5.174620700005475,-6.936776388247815,-29.21663923614856,-35.61576274468093,-5.365857902471049,19.74335966709403,17.96759338685886,10.108453300337,-17.509186134083812,-78.0066241510414,-130.67790706875627,-160.6921121542627,-195.252216519726,-218.89583959910055,-208.7681610611777,-194.22305854190978,-184.32155770255935,-156.33026662009524,-133.61328217205133,-139.21218516677462,-138.19665387613577,-121.0957106077088,-119.05923632655646,-119.10801418076454,-100.89860990233116,-91.84963170568717,-93.70301714661446,-77.23734444949028,-62.28606323832191,-72.0427904796342,-76.51911567478281,-67.0061216568953,-66.69609983599305,-58.9524703729313,-29.56210527370819,-14.959241277448523,-26.530070627276963,-36.60049685165301,-49.386746968001844,-72.12453076425096,-74.49505077864961,-53.29597067972868,-37.48868956465562,-17.1524317311029,21.18442425785745,44.99707230917393,48.23617784601754,66.09303352871089,94.53478618145684,113.56500267225815,134.1760638146127,142.6231811859322,110.68562122970721,68.57471449163658,52.55651399504593,46.91482894349113,47.08314077437729,70.55584388842666,98.74951873428117,112.3571441242519,128.79011879486833,141.8184615091776,124.81655243138408,97.09717401335323,82.76586462639138,64.45308352286747,42.781083265255745,41.25183905183629,49.24588673187587,53.845850295607804,69.87128114739474,86.80623862037478,77.84373786223975,59.149906143593206,52.81072297222792,44.76711242124865,34.42563577183982,38.57030028790501,42.48756457381485,34.90868101592359,38.519826072212865,51.42307855291794,48.432687529143266,41.49569562082533,46.16398543454858,43.79684114118761,37.35876371123085,50.19803738491949,65.49012700776336,62.699230684967866,58.2414456344696,50.947798184593154,23.846348931748402,0.23402116872350387,-1.8067178388684138,-7.7655470326802485,-15.818011103634037,5.51547727243298,43.49850427186364,73.22599604655386,102.06857300080112,114.27696511971541,83.43131923443443,43.150806954550276,28.767280656250037,18.15697264789058,7.219299432034381,21.38584673721642,39.746329100019324,35.37402710218781,31.823834331795233,34.851320064325485,21.790242590085022,14.517773924435865,31.96650421058608,32.97983288334076,7.532048726508764,-2.975661281434408,-1.5795593395886431,-8.551310247057962,-3.6811904133649413,7.792527272806748,-3.9377241348797574,-15.055691487886058,-1.9289156254837474,1.2969119337763921,-13.327241941285656,-15.28488132874988,-18.135855205193845,-40.07617113485428,-51.71551564092545,-51.67929664221213,-70.80367055936618,-91.75245914711425,-96.20237499418438,-116.54738451635632,-151.53476828008448,-162.61509711877846,-163.96720095919335,-179.37499976093864,-183.43072485409024,-175.41927053372865,-183.40522509634553,-186.18964677406103,-164.37833963974305,-152.05039879002229,-152.8474557149233,-136.68294189440036,-122.97937315398428,-133.3477317651187,-138.09435167927762,-133.22373094900814,-143.94331421869052,-148.35094455425212,-127.39875296861678,-114.15523670902417,-111.8412261492652,-90.66612221348791,-68.94322953932172,-69.28166472003471,-67.47341207369432,-61.761583230785426,-72.33140607030901,-73.20378669263104,-46.12658476847758,-27.385244389254325,-29.80632248342493,-35.191403352395106,-56.1237386252134,-91.72354512229279,-98.62734459238159,-73.33288759318054,-50.75307018496322,-26.439928678842474,8.084481175556775,28.515295635045547,44.02682078824781,83.9279602462331,122.16972030266442,130.2709955850355,132.25738112993326,134.5920992371419,118.87000859982007,106.44825080495517,114.1982889780966,115.49817552759663,112.31367471612799,129.95573476454226,145.78060667481273,137.88946651031057,131.17404950539049,129.58251540870197,114.1673848770834,101.77849336796177,100.55762252259518,81.18445136108684,50.222285480206494,39.44996697091011,35.54056880841243,24.612812200323255,27.982751930637075,38.76982175072567,32.07893923055072,26.87821540905405,39.573993239173845,44.97140214740296,38.87991746050299,38.23457393707534,26.90264947533946,2.1948445262822593,2.389364536306538,24.54428205205317,29.038044977486038,23.294841392759817,27.595223301873496,29.403834240587067,39.69647002986106,77.70264667095634,105.83336883040968,99.2530255298796,98.11659124248058,114.22802346241566,115.2293150276496,104.82633613622227,92.28172097295419,56.8652455155176,19.323417346624186,25.941403651267137,59.672494643577814,85.94439321086948,112.99977161083054,131.68913775490353,117.35840944335087,99.14337335237923,103.58015394771168,99.03598904198147,76.37427667548664,61.51975471720028,43.41461768270217,17.219921789510266,22.62935829891436,54.760438344928,67.32310963588833,70.84246024089673,88.73414344498772,94.17632304623862,84.49910334046605,83.72138304673942,65.62875970692491,13.974363089206896,-25.62764876936087,-43.71689821391554,-77.26412606731785,-116.50752539483891,-142.9237692824886,-179.068498830183,-211.95007325959122,-205.5157009127126,-189.73629199244166,-197.19810065314033,-199.99676398013526,-194.46642883696887,-206.4820401433921,-212.86934164096633,-194.82304768030744,-185.78541166082158,-187.0741775461821,-170.30657840309533,-157.0060860695007,-164.56632355554356,-160.16219919861385,-143.9027477463345,-145.86253103380605,-147.69931275381555,-131.69304827775255,-125.75632654694282,-129.88648624450275,-120.03366533911435,-114.89824421115617,-122.81075944231311,-107.62988980403927,-73.20544109792736,-57.07286870446667,-50.92130112411316,-39.93027440064929,-40.894953404189984,-43.59546147793276,-27.57835831241067,-23.055452580516473,-48.75471038562895,-62.951392865732736,-44.301674003251165,-14.341558254124593,22.812285618533583,54.98959364776876,46.646318491363374,18.30774930367867,27.429828339111392,71.90186380782558,121.35943398553624,171.46230983109766,203.81229054874794,197.4622352421165,178.11822773977286,166.409608700668,144.2001380113271,120.30452023341196,124.98732033105017,142.05115820207538,144.7251397724311,139.70053022832252,120.42777889552087,77.71004295555488,48.552351400956255,56.1948943053556,71.42320860760957,83.03336557214553,101.02015712135534,104.51737439257276,85.11766191020118,73.23885407834646,71.21216807254648,59.769671205644975,54.917522331073776,64.17630326521132,60.14623951129514,46.22783299047863,46.006420019751275,44.77427438165711,33.1597050265846,34.09434723821343,40.15895322349991,27.27193887959855,14.874987130881253,17.81125877400594,12.844834453233918,4.045358670732728,13.849762718388337,22.54221904596312,15.674934345398393,17.90466772497924,25.512035858515603,14.358230714417704,5.712485874835272,16.429713668854745,17.99010305152658,10.92759134664519,21.62966466261036,30.1569207797148,18.691570506747766,13.584912825990724,11.380228756610723,-11.253307169343273,-22.500333321350453,3.473881669079299,32.61034228569662,52.49472007225126,78.02177857294734,82.89140329814961,55.939766215698924,39.48838137745299,36.56203866025511,15.027766785400619,-7.638766301673487,-13.42538393926473,-27.769583106338633,-43.55167721467379,-32.16599264905197,-19.32630789248104,-27.5236736457558,-29.089958149695832,-25.14227657305547,-42.05070789675007,-58.07362102078807,-54.931234889873224,-59.186912539401845,-66.32475054828409,-50.422722480703975,-36.399289511473484,-42.98260797085706,-39.163286855754166,-22.082699099352467,-16.023329021928973,-8.401586892420392,4.4944376170426565,-6.556039744700051,-27.57134320032047,-21.16343763317828,-4.8303418995402865,-1.272377810093162,6.700442098645145,14.032976868921958,2.137453830779129,-5.534341130738954,2.4068422741326607,-1.1468516024208117,-11.409123897770868,-9.445939279022458,-18.618446742056413,-49.303373331454026,-71.40836657438092,-78.84729790970707,-84.85463456850772,-79.01778462426523,-65.26547924943527,-69.95390631435315,-79.51567771917973,-64.78964946348275,-44.1500123702245,-38.08979150526778,-34.36394505598362,-38.42406096953907,-60.33105962959681,-72.5993841061075,-63.79267697436505,-60.923770332150816,-66.16125711544214,-64.70335018239827,-68.4913303563118,-78.5571407947602,-74.40772346946612,-67.31494621262411,-78.90803825045023,-92.45855007402997,-95.66141754539223,-103.39562837893668,-108.07833580941562,-95.57974683601529,-85.32579415620228,-83.79723404321695,-71.61209464195063,-60.727572186598636,-71.82789792238678,-83.06917002646968,-77.67910657126218,-71.42942980124621,-59.559023480788824,-29.77390593095296,-6.6158499921571075,-1.3261599787007061,12.557885832478924,34.79053627238832,45.01362501010659,56.0662656476773,73.95756079595047,74.41793294544824,66.13239070378134,77.09495157788528,89.80901531887017,86.34959867630022,86.46600151472074,83.70448358139264,52.33902506112675,12.55010886549525,-15.647351476903443,-49.380963309230964,-74.43919919796048,-60.95460252897774,-37.65161106636474,-32.22868492188152,-19.46003661166209,3.320433118382839,13.261180506722535,25.811421225599396,44.999792255822975,36.26596304332226,11.804497630787878,8.920598008795226,2.277810693007417,-33.01261792112051,-66.644920958407,-90.34672537358861,-112.13885631372978,-94.06475675085579,-26.5973230214228,33.902150247847075,71.51757190165556,108.98593946813249,121.54990820910191,95.85540907931491,74.76001854836029,62.932659184577176,32.7947241724251,10.075803951575,11.764676246425601,-1.1627211040553158,-27.048722297695978,-30.103196083454527,-31.506465917921354,-48.48792458678695,-45.1534391603402,-26.614949369459232,-29.931409996571468,-35.319254008666896,-24.85426717790267,-27.504995941292286,-35.36702215575126,-18.884983198843756,-5.401876400613707,-14.65111193885158,-12.701712382201428,4.415326566185093,12.321661694959856,25.260037568828356,49.38590147002228,57.91472098575221,63.32666724058315,93.77155461898492,123.61316059957767,130.4015727803427,134.90687879064794,138.8804999740477,131.6482212645546,134.57444059705708,149.7503382104175,145.69443167719243,131.3424072550152,137.5578114138249,151.40066566223243,156.55748496213377,162.01359639653134,156.79895215925185,132.83188701865805,124.42725000508274,147.5428053354804,172.93058633526414,187.01544633401016,192.36856832928314,177.1033178506643,151.56958574271152,147.8592875044173,158.27532785136395,153.16724350951435,133.34926199512944,103.93343609602499,64.43102788253488,41.97464173359077,52.83949420839458,64.85396442568539,54.70199103912434,31.460087584905203,-4.95263687049191,-49.91722884878201,-75.946333224858,-79.23578600421102,-81.50180834743543,-82.32307049804581,-76.720739599851,-83.03987282744184,-104.27719655615068,-120.0663526745643,-129.38045345442902,-137.93633766733112,-131.20881345550333,-109.67869690829059,-95.4008488827979,-88.16417109195038,-79.94884578905882,-83.29579760153692,-91.00233995283934,-74.26013361884807,-41.42533986043232,-19.43308943004292,-6.189153600470894,-2.0794840241742976,-16.147794491410455,-23.35970506871824,-1.486448996787061,23.47187329204574,33.24573845250628,41.846281541632706,43.25526136496086,28.325371515012886,21.84589216705649,28.200525306576633,18.97698690275416,0.6420867914156583,-4.539151100992992,-11.417028514942508,-25.15444562551317,-24.40926703084373,-21.13134959644313,-34.710694012835255,-39.671299900407945,-24.491700271390634,-18.87456974463579,-25.448315868804922,-28.37184113424148,-43.82589495719472,-73.23479943089978,-86.46091210038276,-91.09373683723662,-111.04530967548222,-122.99925961080334,-110.33293189395881,-96.61689771462039,-81.3590016956378,-54.43899041214043,-45.9403945821537,-62.21071027301619,-61.955896949270695,-41.46898618249499,-26.267845830200404,-7.440971711162541,10.755742651871532,-6.035921748477013,-44.507026978375784,-68.31963804700068,-88.18846489358066,-108.03179825863013,-98.95281512617576,-72.1926611961449,-58.77989677868623,-45.451517077445565,-27.356936749214064,-31.141653810009892,-45.01758889460836,-43.05520400324973,-46.93105585790171,-66.75423929552575,-71.56735965899227,-60.81714137613292,-52.74742016619314,-32.06367005455849,-2.1609028026939407,-0.14572692555306244,-19.148772242798117,-27.22786704947557,-34.9391887317631,-49.08366366075114,-46.377762395653505,-35.55042869636385,-36.40353582711254,-26.98884339432118,-2.529628531173084,2.0520167867495513,-9.852139670599444,-9.045512688331183,-5.529098656889554,-4.713687068055963,14.31929469916747,33.11125680690495,22.496685707218457,10.87148739019748,22.789678228741003,38.738110553752534,62.98423079296525,108.6580594010697,142.18713292469255,148.7575599707343,160.06969351838862,171.72243410312933,158.18752717621246,139.8863445419482,128.5420275747119,100.31519030846243,69.2095983089535,62.64065674655303,55.02810992833743,31.61630817683397,21.27740344251118,17.542208349188627,-4.906141617851858,-24.849726280498558,-34.16163932129408,-61.69565345375274,-92.79558451861591,-96.4593507586921,-97.23883891362999,-111.56062249975534,-114.08599639930941,-112.80011770290129,-128.55420024096526,-134.43994901660278,-122.02298862852473,-125.40870496215425,-136.77354178221134,-128.23630729857757,-120.70145876806961,-125.32814894035567,-116.79505173202085,-105.45877271283453,-112.90148141185146,-111.41888547270754,-87.3459113062869,-69.44255438604768,-55.47122357326097,-30.348753195530758,-23.063356888969725,-45.97145271559017,-69.04231010720088,-92.13228135234736,-126.94073580914934,-144.3277091194734,-135.80603356461347,-133.64392676389954,-133.82612899070858,-115.2061471082741,-99.04923531556604,-95.24894488616395,-79.47760718918573,-57.78820229454103,-45.06032285537643,-15.566435487485252,37.87660548257924,82.4621224492614,116.93265860881442,160.32278282097516,195.46340897254285,209.19722027658096,217.52454614093168,215.92587715892293,199.95116235632287,204.32559295424556,234.94717579572787,249.43602732424603,239.28587419764935,222.71279256074482,194.28087553221377,163.66180350662665,155.80542723489359,150.2630421084625,122.37006256269754,99.84954552407831,97.46659347481562,90.23477497315837,80.89239506394397,85.46800736311233,86.85746236527027,85.04666280532942,105.60977430700353,130.53471007321647,128.93666825948793,118.75885405593286,112.49255353727841,94.65579842820863,83.77789854392547,103.19334333451681,124.93097687943306,130.25049139277678,133.64410601917,119.17696152679903,72.60094353453721,34.881934829684376,26.908103298184315,20.97556295013665,19.597266937475403,37.00379889283076,45.89636337627978,41.71263800454092,57.19596901331408,81.81120999929757,88.1776860984283,95.681826025612,112.08969601883831,109.57722157094807,100.87666064785245,117.53328247701587,136.4045865295438,135.50411230067286,134.17097758519046,124.46853050854122,90.86864439878812,70.52163838367932,77.61627360497684,70.58979726919078,45.40725592352922,24.351584044348023,-12.965717633375476,-73.258294881887,-125.23523333022933,-177.09287258824946,-242.98937118381136,-274.9010824268683,-257.58075719120416,-245.3369131173914,-248.04052468685848,-245.35485064681504,-256.8398224734211,-272.4870950101504,-247.9157486129284,-206.8335904481553,-198.90748069448293,-205.40864907686245,-204.74066430625388,-209.58660453076027,-192.78602164785113,-128.83163414082486,-66.3722016324129,-42.395978469487304,-35.60827026872473,-44.52497864624324,-74.13894330810272,-86.64320948099987,-76.91214378451298,-90.3133500704951,-122.83482847781336,-138.64202560515173,-145.88615321892257,-145.1845356472997,-114.82061988212467,-88.09408813878306,-104.68035531154156,-129.51827695098817,-128.96792967776958,-115.16350867979145,-82.28656180912114,-31.156756945333548,-7.494087219508431,-20.90751158648653,-30.97142127213792,-35.460467932621405,-52.578313773036044,-63.15307549585798,-60.92524558159137,-70.35876834451471,-84.49365744784748,-84.10675469951937,-81.58484584108632,-73.47130850103807,-37.502932353807076,3.7762376456493794,19.09333348978163,26.357360764075395,39.59689316602858,47.38265272748141,63.1067847683133,95.92611770367215,118.16950085431753,130.9308370273684,162.84263841946685,193.2137768069905,190.14932510968174,171.54772098167143,149.33138645778672,115.29075516502985,95.46786037669436,106.22353754719,110.50836262550038,94.32678710740032,85.32734251778814,81.54581969726787,72.33539977642872,78.18257509944695,90.67848777025029,72.20812743712762,35.25879797435716,13.754516929622913,3.6663041566310186,7.990966445368423,40.69306082175915,67.8826579423492,56.22424650922745,33.530504857093064,23.467570085422956,17.515053117968115,28.513785543356892,59.58188813405652,67.9880463293839,41.451960942019824,16.120413472306264,-0.6815862141817162,-16.699397651915767,-10.526651671430185,13.314739871051689,19.927998280035084,18.67850032897157,30.0836878162287,30.252832563702782,16.014874575063576,20.325761079192926,37.07395367557614,45.155578894875454,58.27370068857161,69.08398936252279,49.494685589302286,24.49843664874956,26.880952447865248,34.16868078916388,34.867833208631964,48.5967333978663,60.916054124013634,55.77968677452583,60.5149450962552,77.17330433996364,74.9271079568366,64.33868050486146,61.91880175361038,43.0400219474802,10.986333548067734,1.5750798071115488,6.22008809666924,4.115789454031006,11.263431902107978,20.062365040542055,-0.290893650214743,-28.751948588911706,-36.582149831495585,-47.442148953481095,-68.6018286142013,-74.37146611932546,-78.68943144476819,-100.79295735979275,-111.57066521889813,-106.64783541374464,-120.59665719802285,-141.26785624077706,-142.00645431790926,-144.73552133030262,-152.8986236325773,-138.73719733316415,-121.49532662509141,-127.2342177416034,-128.2441121819515,-115.57219844605267,-116.25172141060388,-115.4217939648465,-90.33566741100947,-68.32496131632561,-58.27692706634659,-36.148516820648396,-20.39755469983413,-33.35992072392277,-43.337916787106764,-38.00860718979469,-43.776226619572235,-49.89599458947919,-37.070663557176246,-28.569479743856107,-25.833611606593028,-1.5144130281985344,25.51763723061337,29.229899816980655,33.21291313863136,45.92058243052289,46.253069413726564,47.28165910874169,63.53713838127755,69.54803467603675,61.838695188659365,63.831477195630896,61.07331406569983,38.08439741049359,23.61182693556689,24.525432677013317,16.371225322684854,10.312811518686074,21.27478358405932,25.988801086893247,23.451941875284092,37.11691310875649,49.638261935622914,41.989398668152205,40.20138156800645,51.62016772153249,53.85197159128663,55.93093479386476,68.64563848696926,68.1297443630377,54.31791985013649,52.68740407693863,52.20814164320358,36.853656972614615,25.241791798785137,18.592870798410576,1.286847130283796,-4.6693564325179775,18.03891092078379,39.50448560735137,44.38066155971917,45.66832073013984,32.33294253335556,0.5040181072678696,-16.151614073013178,-14.077707392595446,-24.119038165809048,-39.763907227435965,-43.45005567488172,-52.44079894051855,-65.76746740406716,-57.97229897065114,-41.073720762400555,-35.355574171433965,-25.059186112314393,-9.769547755938083,-11.299881409980808,-13.53143250768998,5.685659236090088,24.236255857135056,30.27718587011508,40.21848660433518,46.496378829527835,42.92508045376794,55.26807139946457,80.28162891297434,83.44478972638063,69.08588091835212,54.43466717923877,27.714881423873987,2.232228096996004,11.811577918849773,40.80089941922591,61.06934243521465,81.19203385434652,92.51636471056253,71.62596608127257,44.40084916351447,38.20632355458099,28.762673574717297,8.828498427830322,2.797997442459216,-2.036413827703293,-24.017078461010772,-39.61214789704169,-46.29353747118003,-68.18081538726477,-85.06045580536129,-72.81244906802584,-58.543974780696814,-54.14639563511787,-40.458986598191515,-31.99184258480525,-42.56911672319815,-42.64981427323918,-29.804750729270594,-35.051935610311304,-46.63215884599917,-43.29675111084383,-43.88527521091114,-46.505592654224124,-26.45845431043194,-4.507702982992193,-5.142421143542826,-5.216443115333455,2.8002171954759443,-1.622703233485658,-4.699446098250735,10.655745424824751,21.958805334458297,28.247451108373113,57.04894354672667,94.00794252604922,111.40886473006225,117.26163328018143,106.68118339351052,63.58591968101106,19.208759645200985,5.444212639782555,4.691439951923427,7.07804878733604,20.14792152355688,23.33990029394717,7.56838479129533,1.5250955923356735,6.826497973002096,-0.5166122520080911,-9.032485131502915,-4.204972526209882,-4.831107906505649,-10.669627592697706,-3.448839501069375,1.7271950792883053,-4.912905485288837,1.8582321224542384,20.776523868098934,27.16847799869668,31.74163034042509,46.60904211179551,50.81286150939662,41.574241758981564,35.30812103152928,21.069228679490543,-4.794524727263138,-13.880685632085719,-7.719471650210598,-14.625639122254103,-24.040461031391175,-17.911689825315882,-12.698945430560197,-7.333116919344928,17.927811529971702,45.35859553807607,56.748433107538126,70.66510568112022,83.26276171612164,69.04692722278668,45.10428177896084,34.79576414583311,22.828758332555058,9.409840529061078,14.490726181640587,22.938059120987866,19.988081069255863,27.131198941590903,42.09953140274292,38.72025799111053,29.647558573197987,28.264884866409073,10.061689498828859,-20.80276914531141,-31.756967681841367,-33.86782238651649,-46.49195683938006,-51.16431462536665,-50.38275556305155,-67.72571155201157,-82.62077210282263,-74.85577022688216,-72.59086741078444,-81.79114275903493,-76.65058485782599,-69.61037570700871,-78.3402189826795,-81.88712393450248,-80.148620107807,-94.28962130480531,-104.00532797472714,-88.49137218165342,-71.19228876297214,-59.60267844175347,-37.24613607141754,-18.108048811988013,-12.992753885105332,1.378604932851112,22.87104151544259,25.063756164867492,16.825285017691385,14.469308936794608,8.395671081122424,5.2779223840945235,18.597833265144562,23.370248703790807,2.9817198906745315,-15.939591795202661,-22.769469733796026,-30.750675896784507,-33.00724504102779,-30.376021104015393,-42.67107890440965,-54.46703527642539,-39.359958606308496,-17.220623029694554,-9.920734148276761,-8.843302830903017,-16.967991161438423,-39.12525627585746,-51.37654322608388,-43.950073821234795,-35.00136285162951,-20.492661444218335,8.726652987016745,24.354301804078123,8.7736581042243,-13.226622819778537,-27.757848571717588,-38.62444853227098,-31.045708291978052,-4.695400836019052,8.71535024619416,6.1182051896002765,9.36255075230619,6.881147027617586,-11.086734712494401,-15.05804287223269,4.5329443182648985,25.56486467606492,44.8845977116273,56.85301505187435,36.88735459534753,1.0237552576131908,-7.323535481571807,8.127896766736768,25.05541957215295,48.07789510388811,66.81524671600812,62.554573384035294,58.83302354939643,73.04186400170671,78.22894065115895,70.05896102651734,71.42565158324084,70.20157743523171,54.122174554342955,46.8873864177322,45.3434692717506,23.560059581234214,-0.06753739119525815,-6.388373737869006,-20.012559049909747,-41.9322275456573,-47.9322737746203,-56.47045604921457,-84.60773572817125,-102.75924852974602,-105.09381599875093,-114.55571799701974,-116.72629815896619,-100.8743339939376,-97.78670955894862,-107.36335701820488,-99.52585161716279,-87.35595539373946,-91.33329935865932,-94.6374114125347,-96.06025846735325,-108.43514503655805,-107.39619824968379,-76.8811400850653,-45.547276088025754,-22.386563920198498,9.640666573278171,37.460791163136584,46.56437495423274,51.194448772644066,47.545578209331204,24.14808776132599,9.927717349737126,26.033021240893994,46.88218775427644,56.528306372656004,59.08238734753356,42.28189467916249,10.127793253942976,-5.394022255963733,-3.7890772590619486,-5.8351988076125245,-1.2626039757284682,16.606292252021913,25.557036177242026,25.065430351789516,29.705869068167054,25.43694153038772,8.640768887629172,6.7020016439593535,19.093178776901464,24.64994971288356,33.64863870559774,51.005798102849894,50.610033518131495,33.25486644228262,23.54672563362347,16.153592798787315,5.012425074493967,7.051556034071584,11.488689705092344,-4.544251912405972,-17.397224259250248,-1.2251446947596225,27.328715159040875,57.04710455782424,86.85634419386673,91.26590461747391,66.68784088406949,53.23211183497205,59.4889671866225,57.995918650731255,53.79623208179177,59.06765919958538,54.28824849650123,38.74105656418546,29.452154892999406,11.97831199468515,-14.593439749574475,-9.534674808073863,30.74793937157238,65.66441670746782,85.41803197279016,93.51272726453631,76.32752263518393,54.19475158278779,60.91948986341565,72.94088240485173,61.226862624162145,46.47334603768003,35.313761583812756,11.384414490835116,-3.874868618450461,4.664056053620987,2.7793135331666328,-18.100914037948733,-30.72725331501096,-42.63232306873447,-64.77929867098122,-71.54792768999184,-66.93990515726851,-83.78641320457183,-106.74912999736974,-109.3315116218372,-107.71792358101803,-104.16057741166009,-83.6380713536883,-70.39183500318444,-79.80587543726315,-80.14387150922383,-66.63033416987932,-66.3122468961569,-69.80406095554234,-63.98658309265329,-69.90764088011116,-83.97763497263968,-81.26712593791245,-75.36720372342904,-78.41199577529036,-66.79767571762719,-43.523694705936784,-35.85962006163291,-32.900766916152,-17.41345877375323,-2.4037979920419557,14.458893956515633,44.158321429847206,60.91098001625283,47.81681929454845,30.186877841365934,18.481636174483906,5.0597399725519265,5.4284786531054126,24.455161046327923,40.79252374589454,56.55596299580318,82.98997617135453,98.05177172142055,86.10635827395095,63.57769593602351,37.2427563899148,8.501952632789934,-0.12864925079361428,15.131051230561491,27.2766888647783,31.625331757299872,37.43427597686788,26.679973015487754,-7.275349522996736,-33.49213518049681,-35.96643500688739,-21.855812927369445,10.06531332023227,40.81372803474674,31.778283668403876,-7.634555332809958,-34.679139685964955,-41.85500229671976,-36.972331176109414,-15.817175700503878,3.2851265293709906,-2.6574831596054023,-17.085552813551526,-26.009814188232788,-44.28137021488896,-61.990476278793096,-54.941829481232666,-39.37853715313897,-30.301510177520132,-8.537441248997588,19.972418057735087,30.421244156233804,38.244451285098066,56.09244874055267,59.591481359457646,53.100241939475495,63.355861855100045,72.2888954457048,63.21004237771353,64.95170953984173,78.85513430863291,75.30832101564653,69.1711376096107,79.27043328294761,79.17766307133061,67.77323152612382,72.36679152172181,73.59577052668546,49.97099254825731,30.187562316900824,18.04732523434728,-15.217314464044197,-51.9040787694445,-69.27277555545095,-92.53225442056699,-121.27392979742713,-124.60520367285184,-117.83172499230794,-120.04637603183036,-106.61119516760664,-81.18535814296227,-74.97645007985908,-71.70424806247108,-52.27461373826743,-42.42778423822463,-44.089524432021236,-33.41541562316255,-26.31024374309149,-35.92902292273736,-34.219944584672675,-20.28438249239543,-20.050907377742437,-21.505568466404235,-12.086371434383924,-12.542693387874843,-15.69976665317427,5.460866140828217,35.73136430478799,57.07643873217192,81.58847188665835,98.15048938069816,85.98894995287702,67.73173492371863,63.87737568131509,61.51039938603354,63.811397525656496,79.32383115869997,83.7316277105224,68.36462982247828,60.32902115973892,61.878125736067304,55.87038085052623,51.54255033644053,52.25307969898239,40.323663980268044,24.617061374007406,23.058089156823655,18.627053158223838,1.0117009164366815,-9.52062847943571,-11.696657207016875,-18.275441958856874,-18.127204607475417,-9.946004644999144,-15.62980266819431,-28.185088580787372,-24.66457264989485,-16.054639055667952,-13.801265652918481,-6.159798199798195,-2.1281991293639875,-16.029122774711613,-26.538044446306614,-21.09483121667588,-17.8575783153447,-15.184599474705117,-0.6249032897342595,8.400170826454149,1.5577209306688249,-3.096013134117311,-6.845161034295213,-21.006438855970508,-25.96884753269273,-13.11682344355731,-6.943536433118355,-6.969955318021777,5.795433463978348,17.144811854842757,13.726282337297201,9.635654982649664,-1.2689591932161504,-31.84633944391999,-50.13568706628104,-28.948144869430852,9.471255309355232,49.76050773247732,92.20900830008316,109.69297793157455,91.27016637403528,72.02479671149096,63.48694245141259,49.24781032662405,44.28837542530921,58.72786883185398,66.32041798777216,68.17118772137012,86.11111259470013,98.19140964456972,84.40550408681389,70.50228796136918,62.097664770358335,42.00872940377827,31.508400257322847,43.571868006685605,44.46839137708454,31.591238515160015,33.615307632446324,33.580719285196025,12.39513151537048,-2.0632070355647287,-5.794791862095234,-22.206242114762915,-32.66712220123105,-23.178655469526536,-27.817076235686294,-48.99094452768988,-55.00666435238622,-59.59934214785098,-80.72572750396887,-91.87304028036843,-91.81217052774736,-105.4534061759504,-114.1114245140653,-102.00039723759593,-98.6141720788429,-104.96386159911961,-94.12210593063278,-82.3227227943398,-86.7143273659217,-83.24089052306584,-72.54745191433236,-77.81208982703593,-81.3923090028929,-67.35055042278188,-56.985244165501655,-46.15852720295656,-11.019418247435905,30.83150059841347,57.17337545524416,78.03214125417551,87.7864815743086,71.62626676749096,53.02992092873336,50.361190088352,44.65256258767908,35.00411943653247,37.97453131953018,41.48963266949351,37.727246311573055,43.04578285792351,48.28720862759798,33.52416318060543,16.36412175701174,11.458700054529448,2.7441830988508076,-7.99960610731755,-6.393235112281367,-6.569000000778489,-17.269604371390198,-22.078954465210117,-25.86347584059385,-41.98408059247259,-48.00636707081106,-30.251778879341675,-15.158443541250652,-12.64910237725045,-10.00324239014324,-14.45132372546768,-24.787255580893767,-17.108907439011592,-2.4900180127259532,-10.960690654227804,-26.37915714362149,-26.016837849457453,-23.25115092891609,-18.236601034614495,0.021555021974496213,7.117565139431175,-10.479405267107033,-23.002675751490262,-24.966490287861234,-36.017517189583614,-37.68392724504619,-12.297026833993755,14.561337180990767,34.54310228631681,60.218238940138946,67.79065687674765,45.346418166109416,34.812187492128636,49.82641980158088,60.4004667183468,67.19997656687029,76.05215046831431,62.83354565569895,39.70970833626632,43.88694301042301,55.8317256373175,48.68036816538772,45.90483729886347,48.71311193766295,30.263656715588738,9.439901150548124,5.145401087256722,-10.75037232296608,-36.51195073713288,-41.02632946285115,-43.41034166407468,-63.778584635666874,-71.00645334199831,-62.68233463090177,-70.21740528198481,-78.53157635175006,-68.46203286651465,-66.55224383205052,-73.40550298533859,-63.07509418578714,-55.60108803944581,-69.259994510571,-73.50120544996304,-63.95194629117052,-67.80309502520585,-72.34564113787872,-61.93189615450057,-59.17020902850726,-60.973010056258644,-42.765556933025,-26.288728245238772,-34.166638680936565,-43.04973832973076,-47.19093265861312,-62.297018644689224,-68.55608450447183,-52.21389233946758,-38.261113925489255,-26.79498112335336,1.0063905158584703,24.16666208908468,26.662873492593093,33.38163889631796,48.962928427136774,57.899078638284635,73.03452665868654,95.43082285064378,96.21717425816841,81.03643381484443,76.32724685074113,71.69341282436116,57.64707796571817,52.08603609752025,49.83157142523483,32.46532471332743,14.64257696454681,6.462832118389789,-6.423136362274311,-11.705636215083246,10.005165922349311,34.17187398534085,37.02201136334017,29.610160637411447,16.201236896875105,-3.1133383764136644,-6.9199985409067475,4.889849831398546,1.0986416038652784,-18.56246819415746,-28.94206029268129,-31.575318024431567,-31.612006530591316,-19.289649652062295,-9.210652636392567,-20.190969971563508,-32.291949852997256,-32.26608397375388,-37.030334903647606,-39.876376927550965,-20.635997702479138,4.977651202843234,19.087183513228737,28.545559060661596,24.677417370171163,-3.272660677504353,-25.799675852363784,-21.403507486043285,-12.660754095615683,-5.310173864617079,19.791548766891083,49.04268422174034,63.34731551824896,72.73701970166303,66.20931522596456,24.341544439727613,-16.63249999508073,-19.060789739848843,-3.7144987611799998,15.111705047001042,44.12936130914986,51.34672261161787,18.945842684319203,-7.172422229600933,-5.678921610613808,3.051121121148857,29.52815204922071,74.62944955429066,93.0185174137825,80.76991539209237,77.33901717425834,75.52352011793369,58.455553873387586,52.12995343236594,54.38165312806131,35.052598799937854,10.846460710144138,-1.749273655366048,-28.839018495261566,-62.60319529580701,-67.22465872063017,-59.40557046564559,-63.646496117710726,-61.13426170633607,-54.06473976594132,-63.33159912592472,-64.88015522042629,-42.156199406756656,-28.025283001417876,-28.92551672211166,-21.388584662717435,-18.467313279551338,-30.652186499714645,-31.097055957889502,-21.187004536104894,-25.53500178441754,-29.694565768496336,-20.73465867998184,-19.90872092174523,-23.370716043872882,-10.433606752489395,1.4413416009759343,-2.4659637210872547,-0.7862803330416788,13.711271950998007,32.37041512548571,65.4475654316032,105.01049499248528,113.68493238396962,89.6177586794457,63.00201858224591,40.58082695511865,22.19877465146524,18.41316183931172,15.240746312895878,-6.748387836819875,-28.71748146508989,-35.41800533533084,-41.607171125806225,-43.77517088650311,-30.502123302450514,-22.394746949017637,-30.420104044575236,-35.48833458839728,-36.423499414606646,-42.04797399416118,-39.23507667797386,-29.292772495465005,-33.842270116743265,-42.661784332290026,-33.87187440697511,-21.548128471687214,-18.987045963776815,-17.099399130839636,-23.918917837794062,-46.7549677846132,-59.39891888746038,-52.38898403357164,-50.31076468827605,-53.8673938023128,-49.25228661454002,-49.66445437578851,-54.36574999673821,-35.39290403959059,-1.2498935166642973,16.137631773984094,22.1533904474377,28.49828860776142,27.134686346738242,35.14648722147406,73.2250685693445,110.96779136465865,121.6249509624881,127.91632377275103,137.62898088159417,134.2882587330755,133.05578645783726,142.44919033071932,132.9928032691051,107.51160023289071,94.94891788958793,78.78507694608567,42.82773971702595,16.406894561235404,2.6327250210819213,-24.582541441658464,-49.38726282061304,-56.12092461759971,-72.73624462661682,-97.9684601471344,-102.06167554232539,-101.18943246080016,-112.5759905511704,-109.26683269123835,-93.55227763702467,-95.39174055772278,-96.49957622516627,-75.94303999887437,-59.65420285832538,-51.049754690751485,-29.218139455060218,-15.206402794808136,-24.477507260863252,-26.464215385096328,-19.882934174731286,-32.25996924078956,-47.561068168201224,-47.85765341469887,-55.555923335775496,-68.17114210821165,-61.405803075618365,-51.02042989426734,-49.38861557369712,-32.08317605263825,-3.5061274154352216,7.5727858106090045,11.574652133318828,23.589883935038834,28.298983954939686,31.81290847931109,54.47612744831281,76.73328015841582,79.98670785321457,81.54759959253172,80.81668365160424,62.00977859087455,44.650849159923986,46.8566709648831,50.78799311434346,51.584125157564294,61.24269931759058,64.1408133475826,48.934738140738915,38.40834108546903,36.04106375064538,23.916853701821736,14.071720279780765,18.672421984420144,20.514107827743402,18.104408920411487,22.206658558265744,18.34534435429246,1.1957704787176793,-8.005693976739684,-9.556614524759466,-18.767945920430993,-25.662299401154634,-23.555911863983233,-26.842859137324734,-29.408958438945916,-16.61937694489112,-5.593295195368486,-7.472440173121982,-4.748603194931465,0.842709856312833,-5.799382493226714,-11.481678545592985,-7.669026237505584,-11.77707849678124,-19.26960608287793,-14.702408361339263,-16.932941636704196,-35.15916247646079,-41.38874161674333,-30.128717151923784,-19.603461053920974,-3.620165672208934,16.86127105961651,17.857628705032994,14.05377040206234,37.833438035853916,69.23396853238873,84.40508452979257,100.56232581402804,115.25379156424296,110.21756920496576,107.789357879529,119.60269025178023,113.362999672657,90.17977465781468,80.06154844814213,67.52065060111445,35.033283429849945,8.518897998610377,-11.304242230595172,-49.31137950017392,-84.69933706311684,-95.30811401418505,-105.61417282531619,-116.39395996108473,-102.74558616141144,-85.68078111498384,-87.15420140425661,-82.56969056643938,-69.47306298455925,-69.84749253410956,-65.796530197978,-43.45213303097095,-30.94455353140368,-30.181800158058714,-17.17957005418092,-3.3278147934541993,2.277815243448016,22.345633437491916,49.35982643686295,54.87610654704023,50.71817008014941,49.345890881999225,32.71779024994885,8.464176090478492,0.6666260313794323,-2.5339185409212006,-10.923321333523585,-5.965448877546918,6.820235961079246,5.3575009604071635,2.32694583492837,11.305359482619437,17.352083912931157,23.14077945547679,41.04865542192084,49.57673922547351,33.929815301302845,14.607215029923136,-1.3358176649892481,-20.44026089417374,-29.35751481779085,-27.667775622012428,-36.867860669816274,-49.62709452546687,-46.44173331652104,-42.00630168361028,-48.360225569742234,-50.7266310063344,-50.99302485071924,-58.84136097491776,-58.72190849999001,-49.317953869962956,-52.356001292718446,-59.07873106289539,-48.947628678220056,-37.065372388363826,-36.47040706272411,-33.089039539560375,-29.30057081462448,-36.79570294671843,-39.14657085471072,-28.76191083252507,-26.192804701148056,-27.91246725817711,-15.111656517190692,-2.1770264485831454,-0.9706333204686255,5.233611873227743,12.179863463976899,3.3492764259299093,-2.6513867827728537,7.9643690841835255,15.709818815666068,20.791481399396925,37.666726154529286,49.72618465717405,50.981473343399344,67.41808719417668,92.55140687203087,97.96892052293947,96.86247684236896,103.44421229799576,95.79777444833528,77.59036794875101,73.99527324622429,69.32684062593233,52.219948767421656,51.649057580065644,63.136537817206886,52.78519194807235,33.0574914320119,22.64011310615779,1.3482289577375122,-25.888246411715343,-31.776714736302036,-34.15226278112005,-51.57223831680078,-59.51125276994307,-57.27836963186394,-68.87073318577153,-77.34000526334967,-66.78248350064311,-62.991063824588,-66.77657373868496,-54.47871538269482,-42.84162727177447,-47.95481238518852,-45.65444917038094,-34.34329641494597,-35.17516883222246,-32.58776131167718,-13.520306643129135,-0.884849404558698,8.775948066001309,37.34065838215736,62.871092278372075,63.6742739860487,59.29253942637132,56.05477712925696,45.37820316613279,45.68310185406367,59.6129943081873,54.273572972893476,30.298398894001,17.39081016953543,11.51346397967144,1.9378783623905398,2.850901668583357,10.399869115054718,8.353738492398817,11.131927705826275,26.26713153751035,29.209894784853947,18.93360203038052,15.17295062196288,7.140332915282688,-15.059425326111644,-32.35919257533582,-45.06301770497394,-66.61984651217992,-76.76761241422822,-62.459076675172426,-45.195393153946185,-25.56733971377451,6.402821604749603,25.71777571927007,22.265535799512733,27.106549730499175,47.66044172588049,66.18964221860608,90.02688437508114,119.58717174317584,125.86790288415375,110.79460046918545,101.12608010338259,86.93492396420228,59.47566796535691,47.09570745835291,49.61310739562975,38.9283309979821,27.04417496134674,26.825855019303106,12.47713737743252,-12.350241783077248,-19.38308786649802,-26.022189584156273,-48.65180615503421,-60.18456934426172,-62.322948261255476,-82.60272855877722,-101.01327538548253,-97.37583771263121,-99.47760337284478,-110.09775747773841,-103.93961424393206,-98.29030876759255,-108.97135472660771,-108.02888831970604,-96.80240338002196,-104.43138038143033,-113.69380030311227,-103.85816519550737,-98.15126386402719,-97.95858023462552,-81.50391717599422,-69.21586933821786,-78.52744050825174,-80.71453860562909,-71.51349561741554,-74.21160046181578,-73.00902529716697,-53.8012432311371,-42.69907703385607,-39.51071818483926,-21.6380687604591,-7.9914905476579765,-14.558274987421603,-16.159298246251026,-10.618930365122846,-17.412154914068655,-20.409375927902616,-8.686147151798231,-6.5894754814413306,-10.068202589623718,7.477485667298313,33.61349012931338,52.45280367646334,77.50161679868184,97.13300828408958,85.57757005546242,64.91545365634023,61.38177319717617,62.26806896604386,69.1443491812911,92.64542697008018,103.27526532385217,82.74762748120514,58.81005772101657,41.53751721921827,20.99935870475253,14.546686120651362,28.465848843802302,35.072745869313536,33.299313945211395,43.551709058432465,51.94431742000524,44.34108948546994,37.27391088326958,28.055785472649845,3.9388566055425995,-9.987522698369103,2.658617699757385,18.965737504364593,34.1777416689408,58.626806748703004,71.33043219489728,59.393979281205205,46.309218718956295,37.011014797246304,19.549833211453816,13.570547312156913,29.194757429121434,35.83443669118175,28.3165692460262,29.111980410348984,26.6857784658392,11.219783492971796,7.663810933119286,11.737141618547076,-3.0949086724443715,-18.909316423716355,-17.17562676079587,-20.146563891112997,-25.76640937083995,-10.92612324975156,3.3964022987363953,-1.3933062127844358,-0.14991861945910978,8.092538901487405,3.1413055960797824,8.027696243448442,41.137288965093,74.04292264242717,97.02211980912067,120.64982420629332,122.0838925344757,90.8204508179652,59.86827468787962,36.55668056787909,2.111092134383675,-28.71314852120833,-43.27675502871793,-61.878862014629405,-79.8572352659281,-74.88155053784465,-62.60297660954237,-55.816738081370325,-35.63815237680457,-10.796431688514355,-6.738992065106151,-8.129624056787847,-1.5579914956328667,-4.365532220196821,-9.025770949834643,2.246261878010637,8.908093059386673,-1.2150556520128344,-7.407240885349614,-10.62972384461319,-23.533595579817458,-27.854987361526756,-15.862509616918857,-10.82451444123299,-14.318885438898512,-13.070656982076683,-19.522401887901353,-36.349281132188715,-38.34996616041222,-27.165726732343714,-26.894692500541822,-32.08627678567262,-32.928004739907095,-39.37862860454718,-38.9971071511506,-13.639629271137316,11.843181509180333,16.429910340300676,17.736948132222246,17.633411616638607,2.4940573511698583,-7.8966055779327435,4.625925589125351,25.2315120050383,54.79220558543118,100.45022946117327,126.80633841692574,111.30802068272217,87.60485431328496,75.58397817494044,64.22237961751273,63.13290310709195,70.64742723889213,50.56607263213223,6.901741495846355,-19.470954193734027,-30.104273693232237,-39.475561251506576,-33.52785327194619,-25.011927069099364,-42.56813248503028,-63.7456100395147,-64.62210227464838,-68.45309111290214,-78.86179923865124,-73.72005926140594,-68.24869868794073,-77.05131395874632,-76.2257300134167,-68.49454063675745,-80.24211585750379,-93.37286123833525,-87.80183676307522,-86.58257773058784,-91.26996569482256,-78.62788790959225,-63.48937324018081,-61.595468692499466,-53.0967688740218,-42.66144296678567,-54.45186858914488,-68.85987030513677,-61.72056617274396,-46.86086459264651,-22.507814164135077,26.02249974878894,71.00093991460683,88.43649216609495,97.98370926119402,101.65538688744999,85.3882757707122,70.6616581309948,68.84324495274633,54.958068601788256,31.178314308273468,18.69991981925827,6.741960333024984,-7.679867570788387,-0.21016160381871263,21.38399400812951,28.759420201018735,28.61312561288358,30.23115024955646,19.854851617993383,6.320260791424529,8.103407708518327,5.497951863200134,-16.603747851085863,-35.0034272582696,-43.75947612914478,-58.063146361807014,-64.42390368293258,-51.69648475761636,-39.84377508118588,-28.148626474829165,-1.8884745850212994,16.52237351940421,13.87259478362542,21.047270263398104,45.812226274668944,65.9153497437916,85.69619716386303,107.59685042771844,108.27901953185511,96.84005139399899,101.82218424004728,105.84567050321672,89.58805664422509,76.45194611654995,69.50707249391445,46.53720852995171,21.3448003193772,6.273922270910916,-22.071557037278204,-56.03261467790894,-64.39444585436138,-64.6888792458151,-79.15828528435985,-86.89492470660923,-87.39603590515891,-102.17905444413084,-111.9674871598487,-101.00685059569474,-97.97729665322692,-105.32228635684291,-96.37359500103577,-84.94051382013694,-87.23868927067866,-78.8542267102579,-60.104065068412766,-56.91778283089172,-53.22727865782237,-31.708339410541043,-16.3769212404877,-7.731421556210844,17.039196870340525,42.97838638640865,57.05545053458533,80.10418968197123,107.46942924656662,113.34492762517006,106.81045311188976,100.49287711618783,78.80692956670438,46.86002766275028,28.07972784478114,13.148978201440052,-7.393389335181963,-13.343694294300416,-6.827153762315422,-9.351521745094594,-10.197656526333818,0.9200155725830479,5.467026772987226,5.004696522017262,13.870227277667883,15.119924338506664,0.6781864647349467,-6.366690247704375,-6.751784971586872,-17.548828861875137,-26.730714853916083,-27.607666515102004,-35.846443061175016,-42.17154621550507,-29.602267772676512,-16.988791862224062,-17.806506058996003,-15.95002700146156,-13.074560513295674,-22.367944199623924,-30.155275881739556,-29.954208448479584,-38.91065464756147,-49.8075384342399,-43.84759711245958,-35.19661831386647,-35.473988139604224,-29.79076834487467,-20.26291466512361,-19.460606388276787,-10.977085232074234,14.183225935489986,31.452454483767205,35.91899517138014,44.16586074578611,47.50903170934706,42.26911347145409,51.72978929412005,69.50071311613408,66.08797872262001,52.065371494518935,50.20197739577165,53.488208172416016,64.6057899257378,91.96714814713457,104.16835739135058,82.13817385176596,61.07735804258242,56.668391985761374,49.15079981254199,44.634692076198064,45.99669956450726,25.657028467838778,-5.962929519879836,-12.337758650017541,-7.954843817240894,-15.447187539332566,-16.458794562052724,-11.809409400685587,-22.832209724648035,-31.051076189610953,-20.42067972943432,-16.920285297120472,-23.601509683861085,-18.427032719435914,-15.352412147730345,-26.85111573460589,-28.024818034836926,-18.020954296012505,-19.760939272633117,-20.785443914443427,-8.98423923364078,-4.337843480626138,-1.5464971911769096,20.67083252279082,42.703070179966886,49.19698641091611,63.21063711223802,84.03477521883201,89.46046421172866,90.77123455968028,93.94690388081509,74.34357408451591,39.5776454638557,19.60197805064947,6.401866349483315,-10.661028507279205,-16.020220881047674,-18.63800346585137,-40.40658784001588,-62.03123935248531,-62.097903729885005,-53.41278814884358,-37.963633926503405,-10.05080401216468,6.430222732123484,-0.22705398098770857,-6.265282090849274,-8.191927344546382,-21.831490501258223,-35.62462460047145,-41.341616039330276,-58.36251017127823,-80.75097119551732,-81.24556236452784,-67.12404321224682,-51.51240659542094,-23.72265214386693,0.9084251651755268,-5.820203571623975,-20.799147811899996,-10.707788438888212,17.04443120217261,57.96951824393985,112.35468514790432,146.66294056360096,144.7562672678779,139.00634887454817,136.79017572639373,113.48563101176774,78.81821074267961,50.02582187215222,15.597883459099116,-11.706623597459341,-6.988961788565838,0.9608736459582741,-16.42702835143236,-33.4492067072928,-40.77822056339599,-58.22872281891498,-69.68268006407769,-61.35746207525956,-64.02641644927733,-82.40946755732662,-90.74331218899526,-102.32647633664047,-128.80578749008777,-137.36857356722575,-124.58183145576005,-122.4831920137625,-123.47852285599653,-111.73479891377838,-107.02698045899464,-105.35882328870431,-83.01830285092397,-63.31349795865212,-69.40265349223246,-75.53442319731444,-74.52470942442022,-85.04040897812695,-88.22117632618762,-67.55901247445686,-50.395637783319316,-41.932325140790155,-22.041690812208813,-7.297310315554501,-9.254315258706404,1.213070763708056,24.958857944549862,36.58349559857434,47.1265970522143,67.26201812619149,75.84930868245839,75.40089061691677,86.46062443880457,95.77033408593819,93.14912877517189,99.0575897349194,106.68515475869006,88.28228653923065,56.215697057654126,29.891213552660236,2.1949872734485645,-14.058622210097038,-1.0637458478738218,15.670908465705045,16.00660841574564,17.325153129092243,20.5680772883546,11.222211286445145,3.018548598550545,4.996350217602018,-1.3623654650414698,-11.472132655745963,-4.777616787450141,4.876961681045192,3.5455586663974326,6.253023135349853,10.028893161443177,0.7101368778250876,-4.170927238485611,5.548406676338905,8.43204296303568,3.273918720179872,3.988017836058424,-2.607073100881471,-21.698172161661084,-31.81194095254118,-35.72270510249802,-50.52749978068507,-60.126424063072335,-48.96293784119709,-29.29113700046311,3.0422566670298785,58.036228872567584,102.6893575536304,107.065945093109,88.68943703606165,60.079568540524406,22.3687404285987,8.880653033442433,35.69406125558134,66.32695443190983,86.3612561267149,111.37050555647563,122.68800353718774,105.6314677090987,89.90514412274624,82.11789773018941,64.23783209439526,58.576415209399144,79.39716313992665,89.59170893500624,78.36135712501726,69.45259429974621,51.427412565145076,14.074458152121542,-10.781524768703662,-17.794415061654284,-31.714173662802626,-38.53739557393084,-26.293141252077145,-28.923351416571116,-50.493443889764826,-57.341831915219295,-55.292200693324915,-59.25114218366336,-51.33911287292051,-41.820379041910634,-59.91931915288975,-81.898369356133,-80.12013814206064,-76.65457140862175,-77.4850171241695,-63.762745448827246,-53.955806125308015,-63.2352297321803,-63.46733605071755,-53.29221740087408,-59.940572395574996,-68.69674746929633,-61.695833842606966,-62.89099530388085,-73.25775855440322,-67.45421963595129,-59.683989787786935,-64.9324211316835,-58.40292990817821,-41.222615323053624,-41.42590540692086,-48.171258456010705,-46.761647566507406,-54.939715073593646,-63.811248483615614,-44.788175542875265,-15.206092204778054,0.06453621884848726,12.762461851916067,22.054404971607088,14.859661826202078,12.018875140812602,28.18111560543674,40.360149045544546,43.43837571929542,55.53688437338559,68.08302322739156,69.32483519624111,75.01155256676627,84.58816060217092,79.9594952861427,72.42100899678104,73.25925614505393,63.46622552848074,43.32129300461571,33.77354316665839,26.26574682080655,11.326561807225433,8.081374169286773,14.48502277668857,9.254123024308166,2.6419993848118515,4.653656771693598,-3.3269205318869743,-17.087826637489666,-15.153258449781791,-10.399388828351483,-14.47843100600382,-8.924593095614485,1.587979492627975,-5.316041843999802,-16.464050364124795,-18.159277421742892,-27.985051670788494,-43.25829556918532,-42.814023749578894,-39.14840721473134,-45.8213216516861,-40.89665218446574,-21.987917159958883,-15.027954228958684,-12.603929302129394,1.3362363960798103,9.226186653324023,13.189680941255615,37.21059180494975,63.23366349296487,68.86493025748864,74.79460443090301,85.02738132858232,79.40706124363882,72.57546122390481,75.59126262829847,59.2039791202956,24.155838839644183,4.0618002023817406,-5.330263704848138,-14.269355945147023,0.08144143083505728,31.376990355887614,45.66035059035643,52.63176873817209,68.05865682111305,67.5530760096882,50.99722581543524,44.87408386404676,34.242777146516346,2.355561726977836,-22.827092275484816,-32.90375816231996,-47.50139069305691,-51.12299053895876,-31.268421463702644,-21.675410666831922,-31.294889042278392,-33.55118566565847,-36.92174072841772,-54.29977581803307,-60.331989860156455,-53.91220329922251,-60.07927474893737,-62.47629253337186,-42.881227591977826,-27.918478499440326,-24.98384289134838,-15.31938001807191,-14.411751551954385,-32.71071076163737,-39.78327840079211,-32.3645661152765,-35.84238130000084,-39.242425436073034,-30.227517035678254,-32.22379711648449,-43.900020182030104,-40.23250433977839,-33.851603966071856,-38.66025576892452,-33.42216605253863,-18.48666482916585,-13.453970514962643,-1.7460154765796774,30.459386279369628,57.29956580147033,69.20485434922738,79.43629619709334,76.93399540153666,57.78441890844712,50.49710143699994,56.802315975184094,52.05627640933092,42.80067631697975,38.98570340460909,25.92102103027544,11.193196976891047,15.208768927721389,22.91827619010923,18.750114276271084,16.103078066891612,12.495473027704797,-5.873610354910347,-20.45041769141529,-17.819518381396385,-17.433130936193486,-18.486943234843107,-3.9556059927369205,9.684162937288637,7.686223225829175,5.631751325347917,-0.3002817778234562,-25.30118008443329,-48.22312491083426,-52.487412388256054,-56.019369244582606,-58.98834877480935,-45.58238192309308,-29.965337962209702,-24.53208218967387,-13.596684961359173,-1.1071858847346707,-5.26765509148704,-9.815654970388184,-1.8403573080658813,-5.859328109392038,-25.67256040310358,-38.1632882601822,-49.61618172553979,-66.6189569591652,-63.763601997031586,-41.81867834713907,-25.10934555023305,0.7408899986207187,48.70281361011959,85.16860802390032,92.34239490341893,85.47602717421702,61.878577761843644,28.75474516373737,25.882111832380087,52.4400214042338,66.99757625035065,68.36055112003133,71.63517769549432,61.885203182300984,48.249582202056104,60.379922055484116,77.67929719450218,75.79647236191357,80.13193902637424,92.38288475415135,81.50101766939954,60.28808768823236,48.55908236219243,23.591568951305817,-13.707820001891546,-34.58541757401299,-53.82583019199408,-89.93746140630358,-113.08995016655506,-113.28795031144003,-114.80043217064811,-108.43093979420088,-84.22364404942533,-72.71300677322232,-76.10208212292012,-64.35837449769554,-48.546794752066944,-47.50401962617747,-40.79485544624962,-27.903925949386526,-32.58588829119594,-39.379991209826564,-31.196823391568593,-31.99791097857289,-42.18351624941248,-33.24250151898255,-14.563534707429312,-3.716857266958784,11.434037128181409,19.764568526955916,-4.002882291406685,-36.26519486602715,-46.21162359256869,-42.28097091438228,-23.316705415812645,20.874904705794282,61.28403928983836,73.03618434348495,71.85532280753164,60.888195536248816,33.29224908151288,16.755671308755407,28.17813763456478,42.43261116595692,48.94430736843875,57.102639192151855,55.72901876510234,41.41865492669894,36.26112509702827,37.50673640186783,24.209470745323586,9.172929385061572,9.75929104864234,12.076326798512598,11.453852015373272,17.466401789144406,15.512167036072315,-1.4705192020712223,-6.738189890289769,2.9183787124646874,1.4039022186961203,-9.875264424649625,-21.488086848492568,-44.26683252771377,-62.65481164686692,-44.03060490014467,-3.2947097647367176,30.871252500355492,64.49560844170904,89.38844872147044,81.54560228111669,62.34145434625297,57.79252553218406,48.82789819193424,36.58139972964237,48.20934897498179,64.36310318474406,60.613863260166774,58.07723894094006,58.893995722905586,42.88279512702362,31.994605650337352,46.24152092048786,55.78270943459233,50.95414094990551,53.47337147750938,46.81125843187994,14.954963003355736,-8.62071070853143,-14.623985027011306,-28.099671739074427,-34.24088780121065,-19.258255170798044,-19.3321969748909,-42.828995412214425,-61.27219171033874,-87.35330683174264,-134.2173804621689,-164.13294114688443,-165.875239548064,-168.1006349269486,-162.26439686108833,-135.75360829686383,-119.93716441004635,-119.18840340567854,-103.33588318992011,-85.45194752114057,-86.80457638335528,-83.17140607609574,-69.07553661685006,-67.94666001981712,-64.57827242612989,-42.5581861469885,-30.475592732147845,-34.06197518402429,-27.21656761318642,-18.640985961560023,-20.25203328743563,-9.766003938098414,8.312126905627967,5.234886854409026,-5.5544258230482875,-3.096058710574331,-0.4782079902543873,5.54954826028666,31.87005431408748,57.31684624563441,61.21575917463228,60.33601342334354,57.307047711208455,36.254418410082835,14.92838814961394,14.964526051650292,21.380134379290848,30.236948469302003,54.39134898643612,72.17198236315826,63.52579404346107,52.008235323232654,48.808912467718336,39.55188151532417,34.5620460268876,43.406339870050196,44.296260729700805,35.14651314338409,36.17815754736961,37.69238413079027,27.258301717356815,22.50057899729757,24.31486157151861,15.433980943404087,7.161425351218243,8.117273884249776,-3.741701084556541,-28.351243873187727,-42.00975898104875,-49.90335313590499,-61.83031536519483,-59.868799097104684,-41.61574882010009,-23.500637757461654,3.1550897592114,39.935092077841766,52.100475038127286,33.17262810096478,19.630686458851265,25.05045650574256,42.29499837248768,73.6738398356883,97.73834739612883,83.59167074557564,55.43504417682665,50.28627489340145,55.130273538358495,59.64500662691866,76.00511362785971,84.6369785195656,68.97444351578498,58.81092971874522,61.31326110799381,49.63900764066034,36.54942177229651,41.21992139963844,36.94457774614512,18.018429217908412,10.646293166039559,-1.249122016482234,-38.44773438313799,-69.88140559031154,-82.59274230266442,-100.2987938462193,-111.46163484076332,-100.14839852623464,-94.89965990628411,-100.17100879513201,-85.88569829791776,-63.70404281056666,-56.11825735072492,-43.66381486276119,-25.204307374934437,-27.298555265025087,-36.465955182708115,-31.694688972983016,-30.864697789186714,-32.56680257202361,-12.385010629099085,11.686100435109486,14.732766151978403,13.854901164972883,14.492042853613043,2.6937640303250356,-1.9278186921917324,16.204915927153753,29.85898016631438,30.803293328915288,40.165971511234304,48.518822343730655,42.38162543198055,43.82859413838898,55.63040854650895,53.614762275209614,46.86815070978755,49.82586605732981,42.35048813421972,24.904836408323582,22.932482541582658,26.119452088735613,17.453441127434818,12.426136782235545,11.676416172895152,-0.20772634194266004,-8.404674982848494,-2.895406576612046,-7.030563467387318,-23.577126943163783,-32.97934891112547,-41.16219642337863,-53.19952019794969,-50.97385202224449,-40.76507673118692,-44.788899054912115,-50.09200893415854,-42.52567702064984,-38.06119292783498,-35.60173242855893,-20.989579536557493,-12.26981948205325,-23.882637276575963,-36.847166010862416,-47.17032651064321,-67.04586198028721,-80.1021097370583,-73.7356460741576,-69.56213418381115,-69.05643336905129,-48.54125448219738,-15.638080864447332,13.082235113346508,46.28632842263026,72.73238554904414,66.14492938926168,44.91832692122422,35.913370124129166,26.27317048028753,16.819549017713076,