20.66494434767379,21.594685611327275,11.594137340695088,-2.0519097084219164,2.6528887558268797,6.954243615149199,-3.1485054572556503,-5.239019114693846,-0.5037215906154349,-6.170889245789169,-4.512982303509686,10.963941096020587,13.197009244656591,7.160723092226749,14.821407188546143,18.43821987775363,8.121821668117033,7.817528604562268,13.5184089397328,7.35850700054775,9.406413946890757,26.226511381176643,26.71187339736695,12.259129575904424,6.696146180569194,-1.5439416431589148,-15.526543164012603,-8.075746836305651,11.166193925827542,12.0718163258265,7.614692510185488,11.25103171878648,6.665031091423305,2.8115053475789122,17.42985802489122,25.089231543019718,11.661305537575274,4.302290040342557,4.574022079161221,-3.7474787829433938,-3.968064908423063,7.870119570083565,5.421112545626794,-4.025943287639098,1.5178527223566034,4.037375259614603,-5.133909016226934,-1.4125719635616054,9.14657668496815,4.692134822475602,1.8625872069624425,8.698573666707862,1.5605976170988907,-11.86482924422802,-8.335754832955567,-4.902196848179855,-10.729036725228145,-2.0139027518356296,12.893343630680635,9.126507951125463,3.380248545109589,6.162219718193249,-3.287917088228584,-15.342581879855661,-9.133166526071513,-6.478537304981159,-18.54033475044865,-19.783732778208318,-12.836818220802773,-16.6553788863252,-15.036786694284796,-1.9823436786632591,-1.575126666126073,-6.707912988794137,2.846535837935087,7.408609598850899,-3.3975533804830222,-5.78454005919442,-2.6670071180998147,-10.975711210856495,-13.300046559549365,-4.001801807796355,-7.519381777791709,-16.216607184395812,-9.038375029624659,-5.6539393784879515,-15.756214456458578,-14.702581834001275,-8.358016843562233,-16.93826082591378,-21.159525386928998,-12.02869075919591,-12.723200876649962,-16.36988060874135,-4.536227450020173,0.3150058159282069,-13.910724536853465,-21.187964527716822,-19.540075631998732,-23.934148573198417,-17.93387480160579,2.305437390313851,7.31421608891542,-1.5202319362527201,-2.6583121580932136,-8.581710463455325,-23.70327623101896,-22.77197454430635,-12.360336895937888,-14.165690605654655,-12.090663875750217,-1.392148047719472,-7.4822391799318595,-20.234267669184597,-15.082201020843058,-10.180463002648787,-15.559585333663637,-8.623884009345783,1.881333491964972,-4.924437858811187,-6.230855317518625,8.788043068391266,12.242696755586357,7.072232803031722,14.369530568374868,18.533957818437766,14.981102076234457,29.950640919612553,55.4196861299209,66.48983592123184,76.04786288810408,90.07642189384022,88.11972992841463,81.03191817835582,88.67902842695189,89.19981927406964,70.6129797389517,54.05643936108568,36.23261903100074,5.3579209216774615,-14.370648991908185,-13.822605591666257,-20.22735515917978,-32.876213328759896,-33.99859682644795,-39.03904768241209,-52.644000974694556,-50.893532760119754,-43.09406768428701,-52.908651450375295,-62.98395397304646,-60.811569015703384,-64.21191252964738,-65.92047364105976,-51.281500092927246,-44.44708545753629,-53.978370970736826,-52.901945975570115,-45.92883609954256,-53.04475364452218,-56.84124770367833,-50.06655959311159,-54.14876812534862,-59.9144105601255,-49.35793262554192,-44.10450624967741,-52.88014590277185,-51.343270498910314,-44.37657353308919,-49.87977386491315,-49.67933734609894,-36.505397963853,-33.211955834565266,-34.31786017210955,-24.401290910771817,-23.967708625811333,-36.76463662165285,-33.61681385264285,-20.283046542477678,-19.05182871438035,-15.956241799816663,-6.581126277338265,-10.64662188072522,-15.300206571603518,-2.539322725644677,2.5399597549537956,-11.192611567821594,-17.017765238940612,-14.420860088887675,-17.725059769797703,-10.079073669672635,8.027922120829587,4.836393931721921,-13.701122395404477,-20.74277024870034,-24.35540951865381,-25.96734906214422,-5.723887727904842,17.78170288893189,15.60368261965105,7.401444261884386,9.474815551607625,6.89824977755014,8.32485020693023,24.79380358984329,28.529786671392667,13.659679798382836,11.108558057057943,17.55740441163046,14.502591369549963,19.682674747671488,36.90580114046929,40.678907072801486,38.60843204096521,48.03448952612268,48.10760907691914,33.79275466949307,32.26673880823258,38.70958320039115,34.39946171579702,34.79093714584195,43.36129894855128,37.570893178654174,27.3589400364161,32.47375802940254,34.031917034409005,24.343296803126876,25.68433357228768,30.99137822519624,22.6192407399584,19.048746285388525,25.772979210375645,19.93421698351213,10.802385246853927,17.26457874240549,19.062339560709344,8.89170794800524,11.31984748114429,20.55697343972667,18.31832038680768,21.136448727462035,31.235830925527967,24.45299001484515,13.086469237917019,18.836773913000872,22.106216929789213,15.421843395801039,19.409496005415846,23.760487789418438,13.858611092060677,14.358319495110315,30.113624911119032,33.57565249338738,30.832473924932515,37.04599419700171,32.0232694556659,15.745280682087177,15.872995923634479,22.117679430315608,15.028715615616587,14.294800005111995,23.86240403586538,19.695753333290185,12.955134899834896,23.25637949277836,29.410397786093977,23.376771593960818,26.256236521345535,28.024489753624735,12.889488134007548,5.162686346884167,13.06217460238979,11.92997521464359,6.582686524355224,11.719606741025542,7.529670170656257,-8.474737096873541,-9.059789548934596,-1.1575198856299287,-3.0481394814474636,2.4142785661242643,15.216378822731608,7.4642366068038335,-10.491211155853085,-14.900805805514805,-19.477940616478794,-25.500945327956554,-11.825224319331568,4.170264845012585,-1.272898647639817,-7.581859384876193,-4.733221944869542,-10.204309367788674,-12.63215031407398,2.395521779314403,10.680552222226517,4.873154499509649,7.438167783865995,10.475539460433744,-0.36920253901884514,-3.4571725271899743,5.467150262664257,2.359678717562564,-4.0299796680836355,2.9606415401433996,3.1156256977427343,-7.814352817844778,-6.832834176355385,-3.8352904144522593,-13.042305395146379,-10.242650932759222,7.235507442603136,9.788895806088076,2.39499805739396,2.0669217928007324,-6.496007827289137,-20.784644173901036,-14.913996133191292,-3.18887319971686,-8.54505149613607,-10.505783695559362,-1.0274809772480569,-2.0255312558071283,-5.686223994313595,1.3696377651956162,-2.7886210413881027,-19.312455169110727,-19.711430145756083,-11.11911590782347,-12.721645147507402,-9.352272130787064,-0.7759422309220478,-10.358021661811692,-24.00657103864427,-19.310059155217434,-14.473157309102652,-15.511547298085114,-4.275881159375065,3.5361361261903097,-8.747926489902559,-14.525193817150237,-5.754319640827474,-6.457384092342986,-10.004737154937443,-3.328160976990908,-6.8263371083333,-20.886226628428773,-19.789389229003746,-13.449470847758164,-19.52672002398254,-17.794463701148405,-3.801239307048521,-2.1548097736676795,-5.915998355244734,-0.6555698003020618,-7.161679984753801,-24.894420639296133,-23.36138045761474,-10.961584772075472,-8.306352731645976,-0.07398463909293307,10.778725008034405,-1.46816570051869,-19.720533759819816,-19.42701141741712,-18.233571837132956,-20.833618836534516,-10.175492852242959,-3.0865237377306123,-15.323894009072411,-21.098065598267763,-12.787227551021978,-12.133420430809775,-11.518733294223518,-0.14368961136897518,-1.6227590018056546,-17.177810973330534,-19.262528578642133,-15.925270207722416,-23.26596139413187,-20.529394912484598,-5.180662006100375,-2.2038888365796137,-2.7769395925396436,6.486214506384556,2.3436091804311405,-15.543048370939342,-16.881227753494677,-7.961117168325144,-7.108129911443703,-0.34627794702969217,9.380076076987422,-0.5745417245929376,-13.514999781172856,-9.227610425815241,-8.931006065617625,-16.8530921793641,-10.399940481387542,-0.6695117175675951,-3.487233025711358,0.29379197539620927,9.361801936548098,0.47869205917566937,-8.93377812209292,1.9409156848503493,9.461215211213881,4.468347303962834,5.121768865262707,0.23187616691578827,-18.5094328559559,-21.27782675484194,-6.1432131902359455,-3.487236956374325,-7.280318357797706,-2.4345201715068527,-6.341738849467128,-17.03880014533868,-11.503860277476374,-4.648360225161241,-13.363644960168472,-13.724385483333766,-2.0669057632985512,-3.360702703015372,-7.76317954987686,-1.0793728438617753,-4.588911285705805,-16.58999861950773,-10.83392276750918,-0.002710101125968034,-1.4824626434501043,4.86127703781538,19.324803001822897,16.59391511112127,7.180614128899727,8.907062911444127,5.228631150658275,-3.16912197709114,6.436760601958799,18.764264304720854,12.253263419989473,6.006034912386513,6.47545069074125,-3.937457974724436,-11.706598233852846,-2.5416271463431146,0.221678256488688,-6.90934099249392,-0.9135977382938467,6.876765675615783,0.3818860833616715,-0.2852867951527427,6.041109945343258,-2.13128995817116,-9.235511594159735,1.6306277548278976,6.624774049598664,0.5954199797273665,4.275052793177823,6.2762559258797115,-3.1359109353765646,2.529597471726843,21.98645624899251,23.84763963282772,14.135452021265266,9.497380371346225,-2.649852772095358,-14.476652328402135,-1.8888236401733849,14.469613965777441,9.85380707768535,3.5314366923008538,2.229498603226197,-8.69401230159163,-12.068787031507254,4.031004955263563,11.27027335872533,4.947452931598406,8.484765069710125,11.675839429664798,2.078504654821651,2.380229987926225,12.875237707158224,10.109106995266245,7.41517051106635,18.809005051585853,18.541258900493162,2.891637581084275,-1.7702715885671734,-1.5414963713854029,-8.266004278776167,-2.3631670877758233,11.884215197605007,7.21650493317871,-1.212762529831663,8.30617023711961,15.160089000266522,12.654880816421109,18.239451944313924,18.018058559273765,1.7199705649734547,-1.776283334190486,10.292750983214116,11.372671600809985,10.936500017971996,21.037959957697307,17.391145651633728,0.7894013247480585,-0.43936272611437444,4.478390072440499,0.9860003353819691,8.930238180249988,24.014509192119224,18.429670580800984,6.867189565979804,10.12517604152718,8.480619603038734,-1.5314215364881356,0.668701596057927,3.490213234505129,-3.6172553451678797,4.78947925372953,29.28434551691336,41.87239363937189,48.08786680844388,59.37059691196824,57.83883954791105,47.51628269337253,50.37949560219564,51.24307463007357,36.96228092165317,32.71251723672371,41.284821241456335,38.33386057498866,31.115477870424563,29.298091688380634,12.990681369030167,-10.882690804979598,-14.232699546427938,-11.834742521575357,-23.046390412683706,-27.58883705237969,-23.003460930725346,-29.902030603084896,-35.292392009755176,-27.034819831246537,-27.967261700296177,-36.83635190072237,-30.159891340381083,-22.4638453291757,-29.327547854969232,-29.844316163712506,-24.118375439260337,-32.63925806772572,-39.54024922003694,-30.434547729924716,-28.260100413700165,-34.566557926446045,-28.20750580202477,-22.050375535515453,-27.534946337421594,-21.57315466834821,-7.345811396633764,-11.748925686981439,-21.83612140270815,-19.750256582777887,-22.709093826339465,-29.46552925114178,-21.108871351546703,-15.10275100028081,-24.44939011372319,-23.339987320797952,-10.957165322873061,-11.68745782834274,-14.241476429911266,-6.654855495714957,-11.086495100209065,-25.508582236357704,-24.8426225297382,-19.783135768601923,-22.00535654474538,-10.888106820536311,7.02124759014051,3.5775924015982543,-6.295487819881556,-3.1992001013970732,-4.763345313503842,-10.130006567073936,-0.675158800712067,6.298371105817185,-2.3848601564372,-2.9407899476468558,3.9756594650045733,-4.81075110020379,-13.886769061636866,-6.2239594150323185,-2.787461534978264,-5.468137738109131,4.06092069351396,8.560031293194271,-4.726798940323023,-8.885804157898654,-1.3188434256740225,-4.279110879941907,-4.7944040771667815,8.032756499970462,9.56949402750063,1.132312533318776,6.285272893041315,10.869667190757177,2.140739512503277,3.257392552251368,13.198800246505861,10.319717542878884,9.748026187885188,22.51233889834978,22.151139440272697,8.677296447520497,7.78055723181324,9.608366387549532,2.8236982435542695,7.248695618940131,17.536885696880685,10.019814458206392,1.0138146253985774,6.536002449507041,5.5572367131591935,-1.881356221413439,4.592551908913345,10.618304280581798,5.233510223897215,10.842827318655154,22.828211912305097,17.68957673952425,12.05699902199493,20.2942788963092,20.266189359741176,12.166597749604513,14.593790787398582,12.51525872396692,-1.0474988646278662,1.1052556028128802,15.294218329554981,14.044663100500806,7.620792262385293,7.995302021159254,-1.674580332127944,-12.033217121503606,0.8664631656471418,17.848645704502164,20.689957621610063,26.750710187179337,29.839540290241658,9.456358763361717,-9.772442994759295,-5.744640546296271,0.6239652998181319,5.507649345321059,20.562030310076246,22.380117077375203,1.50060943170796,-7.3386445616883185,1.5154229366068845,3.502589720778865,6.811839634668511,17.88971050722866,12.846676363078469,-0.5369963461535674,5.044469022736603,11.76693276885539,2.474339873188144,0.028119306180990233,5.001152551990523,-2.181935156353326,-5.456608759510392,5.183644659260893,3.8440055764102685,-7.359669828472196,-3.611362665355217,1.0637673592554964,-7.691195022013138,-8.357253136818096,-1.5604443413410891,-7.493068327071391,-10.798479015476435,-0.3323945272524176,0.12937354669234358,-7.865773427079432,-2.5350236255180487,1.9195972493585935,-5.623902879562774,-2.749503402355253,7.7427150105733915,4.277776171996857,1.2906092679099217,8.263727178475126,2.0751423001150497,-12.463799303923832,-11.370635576248226,-7.263259421301245,-10.146070946903919,-0.74655398272761,12.352954659603734,5.415408172436601,-3.337744740947949,2.366985028329223,3.0106336943835954,0.5065284417850751,11.574046654666727,15.78668918953303,1.2546742744472823,-5.281029078693919,-2.100400075101374,-7.972640294367043,-8.099182197456928,4.474481358598769,2.220004789429932,-13.074635022154807,-16.105473556389132,-17.102228007706724,-25.201041409942935,-19.191552130473475,-5.515348460632125,-7.937211615489307,-9.998945719663515,0.9217229945313035,0.8280751533030175,-9.328050033161645,-8.609033940264773,-11.71792245030525,-26.27520682835925,-24.801398005825675,-10.279357917781164,-7.663333149425485,-4.5191118415369465,7.683158941186809,5.2382030701200994,-6.827512371303197,-3.711072938875243,1.4418341580116856,-2.6537780383166014,4.854497242152526,18.428453272000265,13.829193990554613,5.578580198750197,6.734229470529007,-3.1857625295742746,-18.260756247002593,-12.679608724923604,-0.17449158314872104,4.689662922966745,17.44124469955902,27.13152701046417,9.972713567007988,-10.864787442115928,-11.890416053445659,-10.218767821072099,-7.526372835213834,8.069435416923419,13.323213389497319,-2.6922797522645396,-9.931401661685227,-5.79764746413146,-11.246658369606017,-12.973570262041301,-2.436677905511147,-2.0435456457471104,-5.815961570033542,6.864421844002051,15.957245301218704,8.610168260881132,8.393393700997175,12.866372678134743,3.4934410936750533,-1.1019734709886766,7.983933160528166,4.509776037237099,-8.20838857000495,-7.988610885344355,-9.085199168659374,-18.68192017216923,-12.855886704919588,0.9604456789545637,-1.601257759176308,-4.015637841706848,5.274515938248661,3.6320109441226096,-4.744124891689048,0.9675147352760622,4.207770011527917,-3.7239941703009825,1.8784264306903515,14.13880600141161,7.41384598586199,-1.4129379471060293,2.0512313825745396,-3.311651987893601,-13.909875457940835,-9.154475883131493,-4.957785563982557,-10.494761683687827,-1.8106201842388931,15.277119968332629,14.721028482589126,9.769535933864068,12.30053179834428,3.053777389543937,-10.02942350093874,-4.985866005711003,-0.35602172190940706,-7.422975929179208,-3.486511792616596,6.093632260416198,0.8283552819233897,-1.7500408327813686,7.128671885781064,2.404943351267055,-11.462574811416147,-10.347397456324856,-6.660204946088678,-9.299053682246933,2.2208849988817425,18.2039805830472,12.797705619529184,2.8234787776895085,2.5565236902379467,-6.636781699521475,-17.31017959761204,-8.877384462516394,-1.1830328818720193,-7.102671421053277,-3.9906302659644237,4.646312018463861,-1.2830741448597411,-3.8298662934040455,7.060140640808344,6.185112556309617,-2.1965216343102307,3.672446563231012,5.596499154626856,-6.9410268194853915,-8.666681239030344,-2.055609903575708,-6.244059116350638,-4.699592188654778,8.057467696387976,5.477767482482216,-6.039647510524446,-2.7538615969021234,0.5565851830746746,-4.285403435436839,3.559646004339823,13.92491505661885,4.2751808112923815,-5.922224187461142,-3.559316740249609,-7.955947437376104,-11.68475597215337,3.928223214390086,15.867847561171173,9.549345583595386,7.965181297787061,9.647840450479386,-1.5306861593352554,-5.363498836592461,6.9856222196251965,8.253238992350864,-0.12564688899306153,2.3109262616684942,0.6672507063776323,-11.952681044942851,-10.563813377997985,-0.9982446835092373,-5.635320344939178,-7.2446621195940235,3.1436959491044645,0.32002704202398435,-10.196438899462985,-5.333875335571195,-1.2900372519985805,-7.993656878306435,-3.9282700238566153,3.40080174063785,-5.381774422287057,-8.463652516812498,5.075534555239446,8.727713380396926,3.116806036803273,6.1817324818976624,2.622391837539984,-11.941990526174322,-11.550740072744489,-1.5552640361620176,-2.4049550339753694,2.2099140595408917,17.081417373637272,14.672521960050581,0.9609393494952743,0.318523813983151,-0.47871068720078835,-7.2615325752197295,2.485839273958173,17.8663313062879,14.760774227352464,11.004138265913396,15.437085646582664,5.012969923306603,-10.250831590574265,-5.91570654745179,0.03608807746142184,-3.682297694860489,3.548371082235637,13.38611543903374,5.134909844634821,-1.875233532276162,2.731839175231435,-2.8193557939809306,-10.840115906441302,-1.154417233609479,5.808080494549288,-1.6669522641266243,-1.2399602739018727,3.5289851309629707,-2.8217989905674368,-0.8851169832806876,13.613211709226622,12.904555560518368,2.9783826881181734,5.35080764774838,4.097822525978017,-6.6228427987578735,-3.683219359156497,3.8014579256097956,-5.388332662729974,-12.109857617217132,-6.689415079605963,-10.894869674507538,-16.648239173719425,-4.660769430437809,3.862954294785212,-2.1105439824182053,-0.09327325840070033,5.310510175471266,-2.359372641497499,-3.8938536001594457,7.057245908457787,5.421802554896951,-3.066422280896596,1.823955774562115,3.820812125026967,-4.060070292303719,-0.19049091448540123,6.163178853610637,-4.70299818599169,-11.465802254030487,-3.876885511155993,-5.128917304193097,-9.110545136343662,1.7642881016532401,6.537871371899482,-2.6064614913602138,0.18452369791740697,9.960073319423355,7.5944306827277455,11.220513095287362,25.58840231632688,22.509520309285897,7.7843435780236625,4.457453776215649,-0.7805470490086523,-9.980826760359108,2.314964050913682,23.692356669079402,26.380397266906833,23.805472391988236,23.07327522547114,6.076210235172535,-11.400186059792205,-5.1209644417093765,4.2837713189305475,4.260663100508149,13.368534791582633,21.237671572929298,8.591999058853556,-2.250478486597252,0.6895941329626503,-4.01008585608864,-10.30533377291573,-1.9026470109045164,-0.7767916286484696,-13.934554225587197,-13.554165389373505,-4.2774466540838,-6.395915300382203,-3.5260318694174573,8.273849346892959,3.6231152854122763,-8.653091561847784,-7.086164868308693,-8.488111161901934,-17.9168956074975,-12.647564147954347,-3.441517454724238,-10.816714257899958,-15.127962988926672,-8.238630262788137,-11.505659279943535,-16.926969877815495,-8.951382130503418,-8.780707892341702,-21.11705509987373,-20.104343726964906,-13.902026995358657,-22.344969806647406,-25.295166941948693,-14.105171943950443,-10.447587632315361,-7.008789962507227,9.198926505025636,12.097999977796505,-5.229242294006178,-12.702821548794299,-10.720815402299888,-14.7911225559857,-8.35990408133279,9.444831807278508,12.15610790812971,7.951199583695399,15.417083584478409,15.520035636454773,3.194523610422651,2.358155413791474,4.535527211753096,-9.16476970917787,-19.433909583925484,-20.002305871718644,-33.439525060901396,-45.83317385477565,-31.552660071596584,-10.440617623385982,5.111883046761111,30.68051143532569,48.82593331234866,38.94529493053179,28.867292883410542,31.99224551229677,24.557059289736692,11.732712213708862,10.064036944155243,1.9126259531074306,-13.76241428878797,-10.39896751485141,1.94190112537445,0.9678418766547696,3.204441610606851,13.162621357068705,7.484747834530683,-3.4194713615365524,0.8648283897975548,1.7543723743587805,-6.153886803635267,-0.7481511781452603,6.282478229114144,-3.6326305000201424,-7.973140576823806,0.13968196327741644,-4.089690339262971,-12.439090145305114,-6.512436840790824,-5.855054842032768,-13.977728794397647,-6.4188475386126385,4.137311031860417,-3.364379296357261,-7.618926998807629,-0.9563354513095552,-4.78831503721546,-8.75403983516813,2.5579915646685434,5.336727488410849,-4.970064503709962,-1.5930985955453267,6.674244636243979,0.6733025193179536,0.2522370361678974,10.580996463677597,8.15500404180196,2.7584563200307706,11.59410425059727,12.872405740650516,1.6026334012942005,3.4769353931520017,10.601994464269524,3.7642839889472754,1.0540854654529819,8.700556242558115,5.05099470630374,-1.9253970125428346,3.2267715562714714,-0.4818335944550367,-17.185886157882717,-19.711933943317764,-12.865686647022931,-13.139060388325184,-3.7388049417887173,14.138134792673378,11.673577216629447,-2.9087882024940193,-7.85692312560561,-13.891546634850727,-17.300291406820705,3.0248093446011675,25.85858044083211,23.49421880461372,14.26496887694687,10.324177618218954,-0.7994216622819916,-6.143945141880457,5.6269556347680645,9.43135034524512,2.433649675042321,10.703774131148151,25.545785152482576,29.766581159094827,40.36390313365474,56.73785575843142,53.63552959362947,40.61132140254223,34.518465344387934,18.293501209439754,-5.454341205512542,-10.634496230683308,-12.217236397134572,-31.658337727121463,-45.30356346211876,-42.49329611053464,-41.625532152646876,-32.46267203999556,-6.517754121171229,4.1609891664003555,-7.661912886619933,-13.25977613005233,-15.872191157789334,-27.18311549312411,-24.855451727386512,-6.891562147045461,0.617397800003666,4.249417053479291,15.62931792419334,11.36959875510618,-8.961059832205372,-14.00439635884747,-7.213784301516,-4.7172232961826595,7.918666566484569,25.403576948715543,19.655529602722503,3.4721115578750714,-1.2834358288084688,-11.414971164671393,-27.52232693265171,-24.28186036805847,-12.81474237041311,-12.470772252756793,-5.459299527462376,9.158531916370176,6.392631365002704,-2.4525105019253037,1.6261651255449001,-1.294011335693435,-14.831434170970578,-14.641748848204548,-10.541524488337018,-19.03037356878589,-18.413249628351085,-4.419027519942112,-1.5215599258060204,-2.106056195960934,7.340618507862599,5.047222388618074,-10.019125609921138,-10.536857324254454,-4.920810254065215,-10.49607602154859,-9.584356866872037,-1.4050855044427588,-8.083522632687913,-15.882787535155833,-6.923639370178315,-3.0418752310149326,-9.884140651116905,-5.233744984374212,1.672256047893398,-3.434833406740378,0.88889407509085,15.591226776573984,13.807138139592002,5.555688283156494,9.745831122981965,8.146061995598089,-1.5621573679279273,3.072690234762399,9.384539270921032,-0.7277981212491733,-4.995289436937453,3.76741740198817,4.114852030268088,5.9217226310524165,22.756780885512978,28.170982150632476,14.791872455438806,8.63516220683502,6.135888677407442,-4.036123979631489,-1.2402570936513162,12.728094675298694,8.964685901629252,-2.3985018716463253,-0.566560778055321,-1.5987386921018243,-7.243716566608433,3.236324383278607,15.746427420862258,12.52607387167232,14.17434329193949,23.94103407785118,18.62497412684322,8.590820739919614,10.260521599208875,4.698730511602678,-7.9498636558575,-3.3076289819823703,5.26369746530405,-0.33070158536465977,1.6875386490380049,15.975289911619116,21.524445914057345,28.618870758153484,46.35705916232874,46.9463373233782,28.284202035565194,19.454871228869788,15.128416377829272,2.6128236768726443,2.2233728343750805,12.924157877591144,9.95479635404361,5.33645552722834,13.487441922053286,10.766927035513493,-4.625264558705059,-6.556533052587481,-3.635814688964913,-8.972146914400566,-0.40789144551279666,21.041801088751797,27.392734224385727,27.315674377183257,34.066603637654346,25.469649705452465,3.541674428894016,-2.9843885808954322,-3.83409636475363,-14.796011928227514,-15.052638260255456,-2.992357605263994,-1.8328769130897131,-2.1979017344209173,6.364255078171173,0.19199314438923976,-18.75622575726335,-20.948263421945853,-15.536496306395088,-21.097884400610848,-21.133915310864218,-14.670404384454233,-20.437558025495594,-22.677679066448157,-8.688416844507698,-6.0546977606807,-18.311905740901572,-18.415101086287756,-13.320389784151722,-16.78852841247172,-10.79908469573763,1.247893242636673,-5.167293807242636,-15.833176625421402,-14.576089796277362,-24.430376185967162,-46.00140867038397,-51.003363798649175,-47.00734936666817,-47.474714378171754,-31.92154699367578,-4.896726281682529,3.4681086720821175,3.9084267373371366,13.13577140894624,10.208621921944687,-4.402034699806834,-4.345236726566093,-0.7953824035185668,-10.28388603192336,-12.329558537551804,-5.250505692979978,-10.841822116621241,-15.60019729118386,-4.695269847006626,-1.6891594154389957,-9.705742023076796,-5.070547526497164,2.068550183608269,-3.4726973204171205,-3.2406773064465,1.6894054578540536,-10.686093866850428,-24.601210775900014,-21.293523688459928,-20.258477210921562,-23.60743167808596,-11.337133564993842,0.9858227927771508,-3.992277626634704,-4.66417619911193,3.1392170874753993,-0.20722130357555768,-1.7525767608845981,10.2614334739111,10.438114240021708,-2.0067828187494543,1.2000828050713679,13.328261538657147,20.132517515432028,37.87322861409875,60.39602051039625,61.156290014344854,54.04905863660396,56.882513817272994,50.1491181430126,33.94878488600649,30.521352643138734,26.361204790089154,8.699081352666532,1.1548971861688173,3.038131251899215,-8.074713823063767,-15.74083152713204,-6.3732321143602775,-5.8745255803577745,-14.854038827280466,-10.432412114846166,-7.310934793969476,-16.887321024957107,-14.251899601722481,-2.395011073851025,-4.261378045611764,-1.1782736167008607,20.36177980105144,31.172835870017188,26.02549737507472,25.67111345612673,19.40565154500647,3.1168746966404908,5.7842810399260935,21.022661186904756,16.714633104779224,5.184233034327336,2.5685722170861913,-10.972997865730513,-30.31724124276412,-29.796693848050147,-22.99901742191069,-21.893693539879582,-6.691393650629708,11.852268178227442,5.130154679299306,-8.55256985393006,-8.711453160095669,-13.119681994352327,-20.405293496200684,-14.187990293731607,-14.868543376796058,-32.741190775608324,-38.711927842177396,-31.819808332826064,-33.02198616645097,-26.8818807156581,-6.046595317371414,-0.13177276023622686,-8.758593574747607,-7.416300602449683,-7.116665733019417,-14.892562226143541,-5.979136031753772,12.579334448212139,12.872745908893393,8.927903309510723,13.912989453840181,6.363420612837978,-8.474346341002633,-5.727907191041126,-0.5575632878612393,-5.857489300127252,2.049842600097074,20.18041656138915,22.149998663004567,18.90152685510053,21.230013590289648,8.190661847178372,-12.948482037726183,-14.98501223404929,-12.297483018998848,-20.45768318774225,-18.843931230976175,-8.737779190645394,-12.289315937465647,-17.06387757587882,-13.81352329648152,-26.259858471779992,-49.3201068925604,-55.05333982166446,-54.343739070086414,-60.331785697946415,-53.90093524765463,-40.23061110152413,-43.99768036066298,-50.74783102117037,-45.26170525477008,-47.21388511750391,-53.33545472490904,-40.90656796050753,-25.642573107971195,-22.275168749324703,-9.512271580903676,10.557805117064095,15.80962620618369,22.6023429792227,45.39439894176083,61.377987268026594,69.72132585944597,86.40640736703,90.2326544491089,69.5490848249739,53.13294422311212,43.2000524230775,19.846944144167146,0.49637273068223475,0.10150711930120115,0.5982233057543271,8.025670609867497,38.74928052983969,63.80895474348347,61.7736388577749,56.69103372257949,53.94160367174508,40.26978030155031,34.485176278920584,44.002279489235306,41.44603552527823,31.83289004464558,39.88752716244403,47.11441052940727,37.82875558540182,33.768518394120704,32.549672268693776,17.66207826684029,12.016461668496493,24.00872303071645,20.69301349331559,4.03316100576911,2.3552824205870047,4.705815901295975,2.1127398204106176,14.032251753468172,26.284825456512166,12.962825499727094,-1.125953782772838,3.290337640386043,2.924236436275399,-2.4868030380432895,3.3526686816927067,1.0259274711550763,-16.46382422910019,-20.226581218860286,-14.276054563869783,-22.03266785216674,-25.265210745005245,-11.909194559662264,-7.122560089669969,-9.277643929013216,-0.6310310475965979,-1.9868796825035426,-21.280278412946732,-26.61217639210149,-18.365137222619225,-20.22573067568429,-18.94073463661343,-8.856638044147012,-16.451335559999446,-33.731759909456926,-33.107291350640224,-28.966741031454212,-32.07648994638839,-20.215109910085854,-1.084964698794317,0.3671245215148886,0.32641139786472084,9.819809468399267,5.961867406058977,-4.978284729545332,0.22471243551611675,4.139614397311631,-5.256273488408919,-5.163339541944837,0.2962453661730864,-9.031636787131076,-14.269635926523677,-4.37365635110113,-5.26107463935216,-16.364718797922446,-17.90792074763572,-24.830501742639402,-43.559479176194195,-46.54965781933958,-36.857257070166085,-39.09884980854624,-40.42875284433299,-31.135328797508244,-33.24094639958695,-40.68162757523892,-30.81900997765788,-20.661132417595724,-22.25802843249424,-14.544734513444528,-3.9296247097633277,-11.974230084268742,-18.03037691824922,-5.089637045014947,5.718066867594053,13.347199000956298,30.54847121218646,34.749003769291605,17.27269226120503,9.247652048381717,12.147609562057754,5.443013490309778,4.90508767623908,19.318642437368368,23.6738025082886,21.53184825660521,32.296846856128134,36.75266293901284,25.91642668591969,26.342813314442836,33.9650992291002,27.854286209453814,26.626180893061967,39.81540141343984,41.89697845855585,36.26492726165971,42.17686068957691,41.375911814402734,26.79896745734585,25.801188257475552,33.457951452491166,27.48066076458189,24.80393007261784,32.193585989396695,22.997985876828345,3.7462249362094195,-2.427442935130588,-10.810265465073883,-26.313584880810296,-24.364510665017868,-14.75998430265154,-19.35661785554009,-17.21491340214979,1.543619242030002,9.561374446152753,7.0202032168713915,10.372340767645255,3.0419548015438354,-16.529052187276783,-18.322272934123056,-10.106289083110022,-18.551207721082125,-27.114962610168806,-23.86084361894534,-30.624590026993346,-41.07531378501787,-35.199945859028716,-33.257529497094936,-43.962117489560924,-40.15274005069954,-28.1741201531751,-32.53419336566405,-35.56686549312947,-26.097061400585694,-26.91134229991875,-30.702635100628854,-16.089644311823992,-4.763510880779227,-10.462133429368755,-10.62154686170792,-9.354496650934662,-22.250709018646315,-24.867282545415016,-7.429943808996677,-0.0021322065387341937,-3.6115758783131073,0.3456168140597815,-2.6184699805907363,-15.937098507838652,-13.119167042736002,-1.9881755560314232,-6.807222574942667,-10.33723545858219,-1.9320851714553071,-5.273409029593678,-15.391244511300503,-11.056952231261555,-8.914241973988629,-16.75440833872365,-10.261747174307413,3.4394385394478233,0.8377027844512881,-2.257579804827272,3.9110693285846416,-1.5705606571399096,-11.009235511766391,-3.9553825710926938,0.8334353314558474,-6.744340220396673,-3.9435796462647486,4.166167255055319,-1.8189736999331148,-3.908791867749966,7.27723611344457,8.070253819972718,2.70048875901183,10.100475162223319,11.55884851145959,-0.8556412315967012,-1.2233891094026963,4.9682887981696044,-2.6857438718310194,-3.835394024345751,12.733316563862182,24.175196637853283,33.87846165841796,53.48697160330711,56.8338136006341,37.31280884796661,27.246620665264977,27.57714705069307,21.556720046680198,26.039859327298988,43.214249653760056,44.45015606161149,37.32053205284909,44.118602538800175,46.41808820474665,37.62921187057499,41.88966026128958,49.463416012449855,40.87258103828504,37.39949544684523,45.25358320245741,39.12390458523201,28.00629326484298,32.239760368968824,32.32316481985314,22.250456416992943,25.90068871873184,32.11815477075345,20.110796013901258,11.962046898388044,15.193678482136553,4.794392886739436,-8.575952453720957,-4.157223114827897,-5.712820346860423,-23.401192126610653,-32.92357868756711,-41.07868083374066,-62.53098545261357,-71.03809772408108,-59.60567633005618,-57.439806734461996,-59.056628106774504,-46.74581838615329,-42.67012966802796,-52.42682559119899,-49.71432416466374,-43.406679418048036,-51.477646258979654,-51.305221993900055,-37.810453963291685,-38.09142455152425,-43.97799697782597,-36.76233060618703,-36.84871083107132,-47.7813197304463,-41.88207572516104,-26.729609053348383,-22.01381462323073,-10.31066484226956,9.515196754371832,9.057647051505317,-2.033760562236531,0.3987994053163706,0.3582256442460725,-7.498278757238141,-0.9801410276115994,7.029570355524326,-4.480374072094156,-12.112121522195066,-4.948786759642135,-5.158829116509979,-4.735145484705597,12.159249143902876,21.037656071820987,13.253211664579448,13.802424492060213,16.75268310243577,5.851761074748648,2.538192925908558,12.44032687610689,8.632009077494386,-3.0775774313598014,-3.616923261206518,-10.568561408801568,-26.646732765205343,-23.79444171305471,-10.57818545516604,-12.027867001914142,-14.131190546707757,-10.74764632962533,-21.829851118890854,-34.06275870145452,-25.862075452237953,-19.015939668531082,-24.306201955824957,-19.4880926488944,-11.359017482994913,-17.34074444155323,-16.926183805066817,-1.9303624024530066,5.731045932706458,13.331935354707934,34.8370433168859,45.25129091430075,37.76115278540914,41.07276745400979,51.32835189655932,49.9761435609427,53.16677799777511,63.366221083325826,57.99070655026584,50.09545537102991,59.232254532038866,62.596491804349654,52.69312027666591,54.91466230604526,62.59469230454723,57.4225548846631,56.00437028445285,58.83587958879815,42.859606672624345,25.878537272564778,32.23997867815505,39.31464901015444,36.703288362025894,43.639192749325744,48.23767517173215,37.09982323377339,36.309066264897304,46.1166110067641,35.23632486784362,15.686529438435262,11.176185137147298,3.6808483332547364,-8.956336305680294,-3.6064814852986564,3.359795615510974,-6.993359166522915,-8.146151717822214,4.639840076131009,2.4847659649892,-5.454159753288858,-0.5353861053585942,-4.213998293573557,-19.232691650961918,-18.290096357175347,-11.153631414327265,-15.833826954232162,-11.481255941354128,2.148720978706238,-3.417681274955005,-16.41059338273091,-16.114285229577447,-22.041848397648366,-35.272627228081355,-30.077747323394973,-19.28956160989764,-21.59413728750284,-17.28102539726277,-8.086090626806051,-20.027390780913212,-36.40133050954148,-35.18088779626035,-37.98342350177181,-49.338975129607114,-46.49682703166213,-41.96292752155104,-50.792871290601525,-47.03056401612168,-26.869621957963908,-18.810010344233895,-15.227489727821307,-0.9225246920138366,0.7266108156271538,-12.3101681629131,-11.594276523985279,-5.929353903073526,-13.086672198505141,-12.869975205370002,-3.2310037045944333,-9.368962643928537,-18.46007959342264,-9.381785858579132,-3.0450873791213025,-6.502193190655851,0.605708047180046,4.929579754363522,-9.931427952900503,-18.05064744997273,-11.847839554913723,-16.61113104917999,-26.188138187206768,-25.14593462381187,-31.922174048044308,-46.36568980642586,-42.15812849089535,-30.041932949057475,-29.834018497572252,-23.71370044622131,-9.137567460426977,-9.664745504688959,-15.563119788440684,-10.615701325219034,-14.090440813960267,-26.926816536755762,-24.681601615025407,-18.50668450974755,-25.069753839228866,-23.091102051336748,-9.196217345518443,-7.6973671906868715,-10.45789998316016,-1.925599239321774,1.714403165818489,1.758971639092929,18.606640630883895,36.019344399418685,34.617788878674745,34.10917662052429,41.03628426659362,36.45214803903541,28.557677928036945,29.84798053418421,23.50502757043842,13.741964676030445,22.973614929130854,30.902846635756184,16.537838781051917,8.21446334968859,19.8415050979882,32.57716762116256,52.01932432208576,79.97127196721245,82.96349628466878,61.52119819094244,52.224696689646905,50.461329763090205,39.00551552343338,37.14510243734552,43.628181096547934,30.357211959105186,9.305559796353982,1.648195815805965,-7.3378155187765834,-15.309725952619521,-3.116979261344044,7.075904425013512,-5.127632988315621,-14.794186522135085,-14.473770128406652,-22.54330838025639,-25.97562382337852,-14.997863538742838,-16.75639602786303,-31.457303161061603,-32.20666271833048,-29.89637459124579,-36.90802081933984,-28.43406514018048,-7.7589630745601745,-6.937912872489471,-16.60348914039182,-17.69008642511858,-24.189499714779387,-31.169200287601655,-17.74637297554141,-4.850913647119826,-12.334397873722478,-16.588391045484386,-12.970069602134213,-21.19192006180991,-25.821951527390947,-12.904385041630137,-6.9495901072450454,-8.938584356737591,3.4891797315023707,13.8107306383592,6.354504162792241,6.867455727086261,17.937953190995398,14.373543465657816,8.279507957728882,15.642779427648728,14.607043860239429,5.411840180827243,13.676236585584059,25.527150976318563,21.666166229004087,21.612503126443947,26.92034724415044,15.423132573457924,1.021141778814156,1.3011905518801075,-3.569736735105374,-14.570135422494301,-8.553387020268566,0.29260200742087816,-7.881518957797003,-14.197600024579222,-15.481621066560425,-32.30942815011894,-51.07057517814418,-54.814111725987104,-63.96142904315949,-79.99360457979051,-78.66773749611546,-70.95033538805222,-73.58669962162122,-67.35201530002666,-50.49487347334054,-45.0427638275386,-39.55480055920868,-19.347017941159624,-6.743609008064116,-6.1805969807861265,4.755040312212857,17.303590632682184,19.17662023798774,32.55199777741418,56.967637146936376,64.02751077127704,60.64846917810857,61.7234814533662,50.941608081204976,34.731423856250025,41.64047858944564,57.748867639676305,61.13326696665642,67.59885953730617,76.73147064183897,68.13210599943798,58.824250461217204,64.96856374936915,61.461143914199454,45.769024131980274,44.03311770119984,47.16990897254402,42.66381206380516,51.039483296984116,66.35823681373685,60.459772536442436,47.45867653874219,45.071809323000465,34.118245901326915,17.18251891432395,17.8317933447965,21.183641584612264,13.975642860093666,20.636700418619018,37.46240819825553,34.71439571558465,24.390304794470666,22.90967229071341,11.818166812201996,-2.9977463426561872,2.2616944602728215,7.955958457230977,-3.1754522396288936,-7.056650659605326,-4.307886795713832,-18.813377426286742,-33.91688357553521,-32.85163189953051,-36.63004990939416,-43.237913983836116,-32.88565099012561,-26.685815448412107,-39.70022178206231,-44.28192736136815,-37.71233778965519,-42.05758861863103,-43.929944420597685,-34.01614739658042,-38.33293711804005,-53.28123002809099,-51.676551908083624,-46.275311343464004,-50.63029241070697,-45.115985797173025,-36.48704028108946,-48.34737507040286,-59.8901263364838,-51.97158016418739,-48.373524871011654,-53.640366927794936,-49.69234766432227,-51.244802295064034,-66.32277366798932,-64.68657495937865,-45.498718517102404,-36.773208353789556,-29.71107499141754,-13.24370707936298,-10.816355998480525,-19.929956452039757,-14.035265971408515,-5.806550773974992,-10.35629289473756,-6.415163585668017,4.885256569499487,1.0292314939184166,-2.4144671803243742,8.857296567407442,10.255912522374405,0.12876200183790054,1.6990048926679036,2.70348026889606,-9.983763367676953,-13.519536447865022,-7.305494765889563,-13.81697966438687,-20.126300066794006,-13.202625491029766,-15.593733107146718,-26.84412967105804,-23.078978319477756,-16.61754320098229,-22.14235077603862,-19.149876382254156,-8.302987950770719,-12.423978047830003,-17.210782908507174,-6.602268588220109,-1.668156325611742,-3.325753726916722,8.420227958948432,17.21327905289842,9.899118350664263,12.686333170272366,27.467369803475364,30.388733043808315,31.85186140087631,41.349795709603576,35.72650665059465,19.09601611618544,17.406920534028,18.341032947504335,10.251505706157701,15.535612970427106,29.46568885006275,26.65693076809999,22.120344259785938,29.598396690181794,26.62754980646992,16.15670009136071,22.004026356134002,29.346471540666755,25.368607757763364,31.9738684899745,43.3604634268262,34.82318794465586,25.53827815535897,32.685253673777396,33.367204603040086,28.524151951095295,38.014251342842165,43.09695098349997,33.15293405244561,34.60815617834388,43.404427205614084,36.10572153207623,31.13101293052142,42.72636131985156,47.671431781599246,47.47763986710652,59.99930370583469,63.6469616792067,47.60964339621262,42.81448942862396,50.74904991812297,48.784713744546536,50.553416286962815,62.97680920817167,58.785126447486675,43.079420625820475,41.55684510882284,37.62810052903424,18.236026974560083,6.79711102594718,-0.4561575089117288,-24.00015955790915,-42.241071043025975,-41.735140222021045,-49.35540008777778,-62.46127937398692,-57.26244053453893,-50.13275953591965,-52.08428646647589,-41.2577006693107,-27.45439859586251,-35.824986334867056,-45.605912485226625,-39.86060186200109,-40.953654934116145,-47.56976093705998,-40.018950459051965,-36.48230178308103,-49.84904750487517,-55.72646155850674,-54.1511309194118,-64.59883038738403,-69.18645039478386,-55.79594869234495,-50.83995120580774,-52.85413607294191,-36.06739426368635,-14.82404678591802,-5.225970008294099,9.554243794686311,20.921331858841352,7.337193103893316,-6.228748229933834,-0.5724086112767299,0.021249339473959683,-5.299281550118066,2.515380303268068,5.59920103512626,-6.632613081655922,-8.490455357398808,-1.472130133878406,-5.8529937481441605,-5.053321986721876,10.042278131506922,11.749951003398298,-0.38672091502685557,-3.921736847624233,-10.449266748319639,-27.54333253109836,-30.54111257553015,-23.072806763543795,-29.129355148204525,-33.80587952253334,-23.577317651898987,-20.65308901431847,-24.564104159681737,-15.877084051199898,-11.43047683832972,-23.496892680906218,-27.12862979603611,-20.789336166769274,-24.040400498284363,-23.916318988898766,-13.012536333022654,-14.311815616788232,-21.982053191422025,-12.640478461043855,-0.6716537573572126,2.6657642570219577,15.864340118420772,30.53114138241967,25.805396218118723,20.857614196933095,25.86500165512902,16.707614580271482,0.506893093006779,2.2262374426582396,6.545607161956319,3.5646951042406747,14.46719412242091,28.73038521198578,21.70723536054897,13.488037534658801,18.963704121499813,17.357238587404854,13.353167543818447,25.094400482062923,31.643187651156207,21.730538674879124,21.389992120369396,29.9595836556937,29.478575491107257,37.967073658660276,62.371091174999705,73.73541229096234,72.84854036844267,78.82169266360025,73.16257986796248,46.96343183899148,28.686756752463804,19.290580757902696,1.8896760977453537,-5.711965044130153,1.4256404902244673,-4.712237986696723,-17.79568033670664,-15.707048738278488,-19.84064870051975,-41.21440679923941,-48.52686865846892,-37.040619424605424,-24.260614790696636,-0.8147083542059788,24.25433124310063,14.969006732150486,-13.817533676977048,-21.1653187285699,-17.4179019741515,-21.08244330499756,-19.50600294632213,-19.70647578819579,-34.46939066667914,-38.76109106954275,-26.563556933339612,-28.856632793637687,-38.815242244550774,-28.805174730739374,-14.418356927865505,-9.953055042607348,-0.1462968000826641,5.775816261686683,-6.491459010292347,-10.655623979959962,1.8942021113246712,0.2451055361601968,-12.608793372854892,-11.460326650577478,-8.805967529693241,-12.532772980709444,-3.663228350189267,5.423789978644896,-6.286437160665265,-14.425817043751277,-4.207385897394336,1.0403748974518776,3.462144171302393,19.356215130151,29.575271037768697,25.981312763249818,30.78540367930167,35.5499710477869,20.393446891592532,7.781820339630146,11.316378808535736,8.0438549539209,0.540975646056697,5.259127952151829,2.3806073531377683,-16.44739002258407,-25.816554171438522,-29.3743189822434,-45.526631842375515,-53.49722144096294,-40.999021084310996,-32.6619057269948,-29.083859034322924,-14.979385544456282,-9.297216263379124,-20.609241347322573,-21.64949265256133,-11.84850614380618,-11.519852656951187,-8.786970510199902,2.102154965483975,-1.995684832922385,-12.958264650621771,-4.944697593049476,6.814031451228214,7.885590057569198,16.670631045219114,30.569845330461952,34.27282615638106,44.74337624707726,65.15720440110553,65.42083811599304,48.42427804938371,39.422787856041495,30.776130604888913,21.517890091340696,35.9986907440687,63.08575274787945,74.19493264263458,78.0297033088106,78.16664591469281,56.45721600808005,31.125896062530444,30.544613931058535,35.836187318766605,31.577376286559602,36.341886482644846,44.631227035661894,38.378582203035315,36.38542033519712,45.5833977526792,38.98842523572363,21.992521258485347,16.65820055019662,7.005202156715815,-11.8381937249978,-14.852314325515174,-12.001085485909108,-25.49593257501948,-35.06370455446331,-30.061513472010027,-30.847855923544664,-29.433664382851106,-13.280554891035106,-9.70606103125511,-24.17425501422888,-25.39159961028892,-18.262114640387807,-23.743135731234094,-24.968251127300682,-16.973687017479637,-22.456537007606784,-29.45567265812928,-17.091711682168405,-7.9149616352340395,-13.469780627468076,-12.375970211703294,-10.693070687040407,-22.21939746495287,-23.080891819106107,-7.172775764672492,-4.574168936605139,-14.449331067672354,-17.30302025074263,-23.836525267655805,-34.21783070206097,-24.865328142274713,-6.5493268913234886,-2.7301727423237887,3.4902016174574566,20.901551659706875,23.84796892316259,14.051713279175502,12.17524056602978,8.016972908503323,0.5134325273824487,12.06218647788555,28.615907457984438,23.537333769888633,14.15844394892773,13.087156613791036,1.4342708040196124,-14.90057579384386,-19.73591469433713,-30.57403697109286,-49.276934393638285,-47.51779155206639,-33.26395596136628,-32.11654103947302,-30.49137889654468,-20.80977156333106,-24.646079224048318,-33.77303811987469,-27.019510769555282,-21.975626082802812,-26.90054585452015,-17.99489482610672,-2.2365859677682005,-2.3440380633701454,-2.0276477282206873,8.558590588548496,8.323241564472871,2.743289484692602,8.864126543213763,8.407358654124305,-4.009685121877956,-1.1898821665279526,12.772280398068293,14.543745846272753,15.071816419034942,19.61558668036343,8.526317693135994,-5.703297807445342,0.3754176789434869,8.009474603955336,6.0877162047297935,15.75536000860105,29.5271150356814,25.91511209012674,19.77151389095364,17.346673987998827,-0.40337243747091467,-17.718471472274775,-6.582794635926866,16.48750766813528,35.5106671395726,60.449013271370475,74.86948605945547,59.16730603482118,41.273322898760014,40.222238621617045,36.01214734056867,28.117321417771997,25.359250176934843,8.812140170780092,-17.61039346178524,-21.616612472870905,-12.06243308660773,-15.818207712891407,-22.258791150215636,-25.959950968991155,-42.53984390409309,-58.14363244986318,-57.570992341606015,-63.20985794034938,-74.85155643292383,-60.680135122271714,-30.038899251944848,-12.9790929567001,-4.296812632100321,-2.576216025772916,-21.294176595808143,-37.85397797415085,-28.905618460399715,-19.223739422124677,-21.196180847058336,-11.223549452721448,6.178950511789854,11.891435185942969,19.522675722246962,29.27960447134219,16.827228068059625,-2.4205206796777174,-1.5888348659823204,0.5474264102710271,-6.464142565691098,-1.4730562856355918,6.910990763834786,1.0428766396833602,2.392680868294551,15.825960234834515,12.318188644662383,-2.6271489675562814,-6.754130217420499,-11.917079022496855,-17.88884396821872,-1.5438202455772432,20.74265218531747,20.098396600448833,11.463934169019378,6.727741009188648,-8.830482722850338,-24.10135107782615,-21.99556771251541,-24.934571899335985,-43.35906884030964,-53.63945114580082,-57.780067883182724,-69.66423859025356,-69.73460821719277,-52.96032788207594,-46.63405217435537,-48.37589079739351,-41.06383631940942,-40.34251115531176,-48.9597948753693,-42.75183577525082,-31.27105283040744,-34.63778585309744,-33.26962180433751,-18.844875030267616,-13.891285654711643,-12.554521856943719,0.26407472268164245,3.6797113043808785,-6.697022920787737,-3.287065270605015,7.935090138738868,6.972320756227405,10.773365958216518,25.195128567993056,27.925249015599523,26.64255806023091,37.07754768074946,37.855660521387556,25.146603120490965,29.41362265318076,47.377892989540825,57.02683761600696,68.2788080112492,79.4008188568337,66.95679719181038,46.17961390162443,40.551848706176,29.872404808657272,7.4132424503761705,1.4034959798041875,11.958346027511903,25.13653171552064,52.39953580754791,82.69349198340264,82.94849699261705,68.12253588541309,70.39659011248253,78.43277938235566,82.51121815744243,93.70843899664067,95.09999855309738,72.66988285412049,55.22172011160162,50.38552059765019,30.84564942593884,4.7987002109971515,-5.798560976631538,-16.36743556557695,-29.08865702934012,-21.403351389285298,-9.533790477458249,-17.280955528058076,-23.212251565033228,-19.687759668316502,-30.019573340298738,-42.794314914155954,-38.69871079088169,-40.495432632395236,-54.44412338182562,-54.01772451157303,-45.97062134507221,-46.279441356968086,-33.766124772350466,-8.1179523605606,0.4630547633243014,0.8942310820935595,12.780808231520187,16.20642619389347,7.755891365693264,11.627604486985499,16.762736159700705,6.535100580056633,4.632290708474506,16.284342456926687,14.844862703312767,6.440828126631221,6.515204117083795,-4.581255415674728,-26.398493734791934,-28.20021477127502,-16.632490785628473,-12.796939666135923,-2.907606658180251,12.658125470796628,8.685657141574236,-3.552150312405138,-2.79948741933963,-6.859226065352936,-20.248853758416793,-19.157593351681577,-13.496020989672168,-23.18274890645801,-29.456827713323452,-26.249316150480837,-35.13354367950186,-45.87812787486503,-40.43829086873827,-38.79276334331084,-46.96604557957042,-42.55635362677783,-34.8299564252758,-41.64535063524937,-43.49416559639016,-34.9128395185124,-38.379960961445114,-44.44784910495111,-35.32252552242862,-30.033725879159686,-33.00048763647375,-22.076731358489557,-8.080955048382384,-8.079703796497698,-0.8334430450951884,17.075419195037462,18.913799102154062,12.296573862221914,15.375453188822348,11.337959622360684,-0.3397169051983555,2.906829584691056,7.344156965349857,-3.2848131844757766,-4.300791298491172,9.964750946970991,15.785251064888683,21.514952113197037,39.601892072911255,46.7108666894364,40.61662389227901,44.873668468467635,46.80908564660575,32.50580069650907,29.58941869265835,43.22555989873055,47.39913829598757,50.6709976065475,64.75864207908386,64.45624239678834,51.91803739663533,58.17110677653689,71.19636165530952,70.13220886541284,71.76528390624198,73.11255201638613,52.080880786332216,31.649270751291557,34.694825825320365,34.7129480576543,22.557301289163863,17.732589525427922,7.327051386633038,-17.909755235790346,-27.099790349005417,-18.286897355360125,-21.53573035431716,-29.043431157554497,-27.67702496623458,-38.91446195609551,-56.79575158188573,-50.32024895542288,-33.979981814104235,-30.493985930076217,-23.703762910781023,-15.13119700765979,-25.28546759838019,-33.90166700200214,-22.65472237211143,-19.72082282563453,-31.95381697392826,-32.15914780839571,-26.258470330276797,-27.986663669574938,-19.314074488116255,-7.594434154796703,-22.44079323593115,-44.44768968530365,-42.84805982674689,-31.423187533942286,-16.60688832750824,13.295083378417662,34.847167688803175,28.178283362611396,20.305459273648953,22.149112381431422,16.426608189947544,17.582721037679985,39.057903847610085,50.25562092160308,38.63879397154858,24.798306409869497,4.431132040141606,-26.274568027627396,-38.130034508701094,-30.616341083663535,-35.473355442598,-46.667496446007355,-45.47321141264541,-47.516781140612544,-53.81646051313598,-44.12584524968406,-34.12987158282335,-41.552094366612444,-42.46014868688683,-31.086412001946943,-30.851132477799208,-31.203545977383328,-16.170749024236827,-8.619163151118983,-14.326441444602844,-12.516367094957989,-13.518527576578224,-27.383633396574442,-26.82869223635121,-8.964628970911994,-0.9111822878248995,4.437634882121865,20.322096266019464,27.240292039778403,25.449872900744147,35.03054729132333,40.33097633040531,28.999808989626437,29.437347916242125,46.49194860589685,55.264256764206515,63.440226838502824,80.5616331280871,82.5474701393457,71.19432316217983,72.72071650394547,75.66522149185371,68.19792584590431,74.16231339414082,89.25961043715822,82.38174016521597,62.69380393386079,46.162617202633434,16.923444465749437,-16.781319949186393,-28.65902012679348,-34.92793937105293,-49.870406704613586,-48.57980687347031,-34.489474230857994,-36.114928002605176,-40.54230708588507,-34.01313627649478,-39.782130964336766,-55.17760033434109,-54.936837412347714,-52.95380875185475,-61.036040345496126,-53.59521064702787,-35.056907542619136,-36.85903450954427,-46.90188158650384,-45.60414419002744,-49.716419775181436,-57.29380834605853,-49.2754870528668,-44.563300239096975,-55.5390614866843,-53.81224002773392,-38.58507022404899,-36.976063369284695,-40.15209860545412,-36.426236815130466,-43.87712316345849,-54.34782661153642,-42.78289651417842,-27.345757225873214,-25.432202628033668,-15.075063234709768,1.5909748334463814,-0.7862543853742756,-7.930417783533438,-4.5727540517874345,-12.109879261787631,-26.469895062607122,-20.58138143045752,-8.9056108840993,-9.324993783237375,-3.222990200922638,5.427194367898252,-7.418245145962931,-23.14450311861649,-20.05174369395405,-16.572977695689616,-13.695592801304104,7.475804173371231,27.900871003323086,28.52519754801436,29.21117192609346,30.597391870895926,13.3735584389565,-3.311892389454427,-0.4197323258395529,0.19958972916583495,-5.395924515186744,2.7055618971075712,11.56059479515116,7.975409614972005,13.631423933019198,27.13642897658587,24.42919225075434,19.99653450891698,31.201721738288448,37.06238679574782,33.54867343653703,38.54006103891269,39.25005734120387,27.077164043520035,27.892687677979918,38.93013993111172,32.12753038108085,21.491052511445027,28.138470283977497,36.485294279505595,44.98097622287125,64.67131083309071,70.35063096047173,49.69801063823704,37.69054574349498,42.861308814753016,40.533619165646826,38.17991974185928,46.2441757812581,46.31367057889098,46.70903599983136,69.41710053876156,90.38664632770634,89.11746246096676,87.09409350488019,83.91793151707608,60.07516470063711,34.17670216869482,20.7400999440404,0.02409170688693063,-20.012790104642853,-15.706644869108342,-7.232425500400967,-10.261945712931826,-2.565403184985525,11.18720086996492,7.26074229524662,1.597992111906796,5.846294243246087,-3.21475532102197,-20.62175922360682,-21.59682407196587,-21.035802092313556,-31.308198422395964,-30.889728601290393,-26.49154619941259,-42.357086350021696,-58.050211328580865,-55.679863351943396,-57.16811346470337,-59.692116780480845,-42.39679395844787,-26.49489345718208,-27.34289075054283,-20.925258559290924,-11.481436134369616,-21.947577196526353,-31.18630920813282,-23.692259569539225,-26.045781612637352,-38.623870626681054,-38.70895597037118,-39.676084700465395,-48.721657399177445,-38.377022003534634,-14.9131323250533,-10.1809318832857,-13.145383766870221,-8.142993532958055,-12.424749014690681,-18.827543606724824,-4.617449413575138,9.411597414578116,5.412905474072698,5.8024084683349955,11.045896777727783,1.1113879474129549,-8.053119651005089,-2.540482040830778,-3.1357859186034807,-8.548940851376546,0.6170699917094149,7.555253827198014,-0.9466532620587342,-1.399437982312588,6.635507704413809,1.0659071602982895,-5.923482112002208,-2.276810282671256,-8.001664591676704,-18.72680434495297,-11.165919379526049,-1.6287028793006626,-6.233869109123997,-3.9261427016135673,4.660065832070213,-1.5849784519427685,-6.9952500402099265,1.554644612715708,0.30743021454657127,-9.68185940211976,-5.16946445156333,0.012883441704955478,-5.837189388878215,0.21322165126014347,14.581632702606017,13.2204308258901,10.348997097294259,18.03963798394662,15.24174805800715,7.7074812994757735,18.111678597570677,28.69308723434597,26.488176872865303,33.461894076443976,44.02663093471915,35.56829523721835,25.149763314364805,25.626009171077026,18.53814769126729,13.479209379668566,31.922556495001743,50.49344668675792,51.763892031448165,57.48413040473372,66.75832483415275,62.75364726362041,63.914741916897064,79.82256109858476,85.5668283477896,83.56097972744084,93.42645356035646,96.26695364962723,80.41420485864177,71.90977618812555,70.378381758075,55.182238820611516,40.217769789729175,31.508922547205966,5.184976829480162,-28.581023464942618,-44.70642152931301,-62.41446467904068,-92.33409085591433,-106.1527616518886,-103.3266854151957,-102.43689647158965,-89.2098501525291,-64.5071320962196,-62.45003083089129,-77.21634595708011,-79.59794185942128,-82.50922280931604,-95.1843292059138,-92.24007490469106,-75.24978931820114,-64.56431601448097,-49.08506203591676,-29.19101369440059,-34.32769422288048,-54.66078856328587,-55.59192232997119,-46.23295619633279,-42.774900658367386,-32.877940028374965,-25.92744554818612,-38.66867556686611,-44.320715626538956,-28.26598718229728,-18.783921262769997,-14.291457309187862,8.741576659139028,30.424304601649396,32.73992146033978,35.849816823908974,37.071282719912986,20.582516353942758,11.632348568504948,23.55894680594543,25.519850455236707,14.059601132381092,12.881426620031736,11.07276371505667,-3.0659939634416267,-10.022850513638474,-13.450177508199099,-32.46047006004912,-46.969576861162984,-40.76519342596473,-37.22512895256746,-39.72034314142683,-30.13006782965227,-22.872058837315357,-28.80313812696536,-24.37034156462432,-10.874098311854464,-11.322489953610384,-13.481744433989112,-6.809907931483968,-13.274741482437669,-28.342135934387922,-26.453073458101347,-20.634996904008187,-25.787680657511846,-23.374678119812693,-15.118243231702944,-18.228530850639405,-14.248257767521693,8.069108163159225,23.08096158016915,29.146827982729786,43.90572291287386,51.01323519322277,40.283552613976866,35.49797341796965,35.69350519167612,23.052311308009983,14.917800312766312,21.24668856241002,19.02667346963436,12.36575468580379,21.555880176081683,29.839694014472048,28.41997836405573,42.28308350355105,66.86360178349938,77.77497744664369,85.94982654234272,96.79586813835121,89.37586039285475,76.40642442432684,82.60261195364315,87.7242973299956,79.29696594195718,80.71688512394715,88.70085049776634,86.16270464076678,89.83832685892716,99.52932324867037,83.01138190912795,48.77981584786319,27.14136226461258,7.980024547088506,-13.423845538162919,-15.775464610270841,-14.229541009773339,-34.50612542740694,-54.433056290352084,-59.65139898394199,-71.38510974599876,-81.5337354235798,-69.97295991569804,-59.22517791273809,-59.82117178195533,-45.882639074094435,-25.457179686512774,-23.789019893415677,-23.695851387847593,-16.084941455916567,-23.470341683303563,-34.11906167625757,-24.394361333566323,-17.200852142235096,-26.140063000426224,-27.15573834152983,-24.45246976798497,-37.03669376097994,-46.49767928171389,-47.4425013136716,-69.15884362076952,-104.43588369823817,-119.86905535246825,-118.36547878411811,-102.24482254613326,-52.54591142713018,8.190661271629972,39.91468241524766,55.02455104402034,72.02702285089678,76.65426781390252,74.97047065100915,82.54321252114178,77.7702834907689,53.92759961200899,43.678888696771764,47.72529891192311,39.84722814679138,26.869312217173437,14.06347907062095,-17.78525227721103,-53.68429691552689,-62.804215660378745,-61.60401241462168,-67.78761830799291,-63.23029492929723,-51.46126745206132,-50.990630356342045,-43.83744119939516,-21.511370228592224,-12.632153439367848,-17.290315400155848,-12.64149583765921,-10.92003355731689,-21.42278076325925,-21.656438490652814,-14.473120548650385,-19.344391423264927,-20.000950615558487,-6.935732817859564,-3.607169203217152,-7.074648985011667,1.3043218168961692,4.3636963933588335,-5.655426387378471,-3.2360702961460284,8.40188464273521,9.47401742048523,15.655757386932477,32.38555015604002,34.06131310605121,28.013795017665135,37.59016021585135,45.85572317772811,43.3601216720238,52.37606988103618,64.26416934833725,57.65727102985018,53.82164224481832,62.99024743954477,57.653635908688955,40.563098721768604,32.78192430581579,20.931440885861527,5.227455235620732,14.742664360422319,37.727287152478446,46.12009852639348,57.91357166653684,83.25059152739088,96.74967044319189,100.12173268652518,104.9594380599639,89.44827143913022,56.37664463108642,43.323402315646405,46.258008000901505,39.722636500154785,35.47378786795368,36.65946434611871,21.187241823792018,2.1536328767278134,1.3364957112920526,-3.266993813383283,-20.84037005518962,-26.915987287666535,-30.102164576871964,-49.70218269053255,-61.2794270980915,-53.058746986542346,-49.344718867878214,-47.19110394112058,-35.341017911692155,-38.182534780894315,-57.255223403457045,-58.457758594522176,-46.00202774917109,-43.13872046564865,-37.684379218264326,-28.71156635025068,-38.35250434336021,-50.84170906048009,-44.17068567968845,-41.54291928396316,-52.399376767913736,-55.23124865571626,-61.635582811582694,-89.57086566578376,-112.96392902491984,-117.07249971623021,-116.84434006761747,-99.1582547600014,-51.377678550137745,-7.777653862197617,12.819769918511732,31.00345204593621,43.964786870717845,40.60283861096952,43.34027163837815,55.14364664217455,47.57119081894113,28.759733091401763,23.18541767958565,16.828551373722526,2.600979766736542,-0.8650222963192262,-6.183211684649518,-31.738280573197788,-49.88438801638755,-44.15548193934969,-38.29769002315418,-34.43072507319988,-23.39542327609266,-29.02734516301743,-55.49529289002396,-67.98612892430482,-64.04384119363593,-64.61642863280765,-58.78407046494024,-43.58466427105135,-43.32140586820128,-49.295175536470175,-37.744735920635186,-25.63732636299563,-24.724806951829038,-14.705028196096295,-0.7249600049185161,-0.3203571738629485,4.932837138143199,22.37709681932853,27.543935926603407,25.645492986784177,36.078874134971024,42.649365665614766,40.55207087664476,53.55136663300646,71.83540666121854,71.6217100523,67.21723227476056,64.85595155666127,45.94325093711279,25.985061726081312,29.4226166284489,36.577399977575055,35.45452897393438,43.790284329179656,50.63134879831649,39.17666458775451,34.62975051595366,46.780071626377826,49.204230815112226,45.4590699617181,52.6365666471623,53.509003236073006,45.80790350383099,53.814772792776644,64.40617862716988,54.09323171530464,43.839256856540715,46.669010904223164,45.63443366534709,50.69954710513297,73.62168618988169,82.20000634906549,61.10455894028935,35.4939045963045,9.184311168281937,-19.94907803836367,-22.880174752086646,-0.36233078619127035,6.532857168918701,-4.589283163895337,-11.725080687184791,-23.238351549311147,-35.657286670240204,-25.425063543053472,-10.914777233536151,-17.88344100399605,-23.122106088510478,-14.882838189575473,-16.876103237492273,-23.716330847474385,-19.680414804466544,-24.65285747415409,-40.504999878381824,-39.52027761780059,-31.79915829822501,-39.78014518973628,-43.951014619521644,-34.29912248381215,-29.93954300382039,-23.083644386937735,-2.5832172562921603,4.9952884057087,-6.773816962546562,-8.60903249945991,-2.4882420050362377,-5.280006616438577,-1.228398566358456,9.891796498802737,0.9689723954647338,-18.74596494704658,-27.065907099680345,-37.75415219115929,-49.97261343920872,-37.91972001494751,-17.045019213645148,-17.602008465263303,-24.838817868916035,-24.261436426190613,-27.214230839045413,-22.501208485381067,-0.6678675471397835,4.240511964521998,-20.111410711059047,-38.02299485311066,-40.20638127454126,-41.672544070594185,-31.366353220542365,-11.785562696182096,-11.819380905268922,-23.2618271240781,-22.016120543689183,-22.546016593016454,-30.75150339316173,-23.649373017585276,-9.00673512814607,-8.45179589530884,-7.787373055047073,-0.8448390619036101,-7.272975299519847,-17.147639908382672,-11.691394898999345,-9.25309093631986,-16.124512255050618,-9.707716299417832,1.6425494765889055,-2.7105268042980453,-5.757779905938254,1.7784288319143284,1.3305618916205355,1.216056059958024,16.294223241521184,22.879353941174724,11.838876303765044,8.363144114417613,9.478462470556662,-1.2125185574585027,-6.396133727267267,-0.8347464665743343,-5.781968743378627,-10.631198615555016,2.6427456008520425,13.031074481556411,13.55650013144997,26.0515539314182,41.04235179905707,41.47846467625742,46.91034984499252,60.51602803427405,58.50848717249869,52.13820166087514,59.94030668408563,61.39565731673905,53.59215053735819,61.837823170594426,73.18863869768903,65.99708050271681,60.817990561422214,62.393204064394055,46.86227429283163,27.195031145435017,22.50398297390101,11.607195120474483,-4.594650666806275,4.68473523821684,26.5574532685053,33.667574284698205,38.144413957200946,38.067559719247356,10.323557479988981,-23.762077352638865,-35.01743318829682,-39.72682403095603,-42.91054674453345,-27.911475434710656,-16.162049832276658,-29.605780576934905,-41.41994506443574,-38.32693574848838,-40.3524639819608,-42.654472792104016,-39.01526607891231,-54.58369294858721,-82.36201802474122,-82.75449621048999,-62.75492194924432,-49.966211584039804,-36.81304508609804,-26.5878423535113,-38.34481901734381,-49.59437124102507,-38.586252623765645,-32.86864296477285,-43.4777106122034,-47.005022126196344,-48.970089945191944,-61.47492152128932,-63.2769563256231,-54.800647968029004,-62.408694975013226,-72.27116928183798,-61.13455910612532,-45.99398154401057,-31.092742766546873,1.8160714406093774,33.39613257594287,39.07898591048013,38.43279064975287,40.01117506697364,26.382096216756125,12.884514656907225,18.23858193974775,18.858931130707337,8.516663746068343,13.367398833036873,25.737184762079917,25.02896088593235,25.923689077399935,29.90938173382547,14.113262636601156,-6.884058376449346,-8.392985294191098,-8.177049621201926,-14.969598532856963,-10.04956233951074,-5.035632410867608,-17.60326616316914,-25.598517111765943,-21.27615324065762,-27.75001859198695,-36.805534270273306,-28.996656991714758,-21.8464945027073,-21.603613835393848,-7.167357049831635,11.47009062203596,14.99422197036857,21.6086748339597,37.30878059613105,38.62805817439972,31.98992386970947,35.70813919636808,32.66740777478645,19.3005724240641,23.056764000391304,37.97187752492978,42.172749221636195,46.82547210217966,49.51049093738232,27.717509150456564,2.6152927374118926,5.451326383630448,19.404899343157695,30.22419708237646,49.28485412898038,64.29882385335648,65.0287482778408,78.80544918031674,107.7472925946038,119.3870152112746,118.3940408102589,124.63188222506344,124.63185732780144,118.66387347240979,125.30012511655346,124.88082235974159,98.49923966256056,73.06467312848346,58.70269515176284,36.87958209857179,21.11890268042616,24.03311256412453,16.896034179673165,-5.485903610162967,-17.754106974987412,-29.635433002139095,-52.83807644006033,-61.74795023495072,-57.3093927144229,-67.93583871980667,-81.17735846755235,-79.90889943185559,-84.97640245676766,-92.94053443763174,-75.33608686793022,-47.26092408385318,-32.22096648105388,-16.86131978556838,-6.218215300024897,-21.077504151044007,-36.57323004783865,-28.867250152893526,-22.936341387577883,-27.104915158496834,-20.90941266003469,-15.288810662410185,-23.274884674299575,-22.591214723482263,-13.087490719993335,-18.30579411259444,-21.513425067908937,-4.1201247772538805,5.317167678019938,-4.622338012910834,-12.704975502409976,-26.195787899062175,-53.04501700552496,-66.68290345293214,-66.29157347274113,-76.69297854723166,-81.52158840285853,-57.509036834963396,-25.069972250219173,4.243950674324222,41.52842413778679,66.94423878670644,62.202716692968664,54.11570795208569,53.29091480718322,38.13632152012171,17.82616436634403,9.530978385282404,-4.364740446176202,-23.767145880632455,-23.292593252447737,-14.573305560512397,-18.500796700555934,-17.12881939655429,-4.50242634616483,-1.6260022793747053,-0.8641951969947803,10.577837409622823,10.243504422450922,-5.983562713062947,-11.396219813110346,-10.123502628301253,-16.85845262088816,-13.736361159278987,-0.4373148618059588,-3.890262978976937,-16.128002071453455,-17.45615636711335,-21.736258682865948,-28.412141278293824,-14.957073331901917,4.1999648268473635,7.453361100095252,13.106540452427023,27.072919352219486,30.018841439935095,34.179501376106415,55.40228745351218,70.16412181707005,71.11065571517068,79.8004143493975,88.14234718319315,83.59587454855483,86.96050372115994,96.22379160367318,83.37849772069772,59.910665812047654,46.921165343079736,31.024542142198534,15.755784316691276,21.54016012351469,27.645813501886657,13.905168754459783,3.0475412203309267,-2.0411669077120562,-21.770832696518276,-38.88727043002811,-38.672900506716836,-47.847628773079244,-67.66551225263002,-71.5594185605479,-71.71398412446185,-82.34074715347194,-80.20551267011943,-68.95750211251664,-75.3625430183062,-80.8929847308005,-65.94460099942614,-54.90696160952388,-51.27198177457927,-35.479088884913004,-25.91106343125825,-36.41984891473117,-38.2853573664825,-28.017683439942058,-29.923462145291875,-31.258744725620133,-17.73094035652725,-13.20906051735939,-18.984622283721478,-10.206545013997932,1.0300088568182648,-3.694965039733763,-6.923737564802637,-7.4197281289759065,-24.420584963377525,-40.719506359412016,-37.50041260123021,-35.57219577638009,-37.33846380297715,-20.96376997853754,0.3849847088596592,12.35791014836887,37.843818990941614,75.976813117436,97.14235642567986,104.85195803746655,104.85312183688453,72.20010785000406,17.72709521761408,-14.01154536066972,-23.775090197806822,-30.874897505931173,-24.87961915748974,-14.546393955188819,-26.482467016410737,-43.915461068044806,-44.76153843262853,-48.653034646709685,-60.43736054623242,-58.82605228012579,-54.558456157533016,-62.72307619202175,-61.59292692317946,-48.173966241425234,-47.60377994337695,-51.533573005780326,-43.98269218536837,-42.970064144162905,-47.965929008927255,-34.80966665822875,-16.04322772031967,-9.638272406629211,4.067701752447669,26.478657804604584,32.97471182414921,32.71544028147539,40.135798713295,37.77895354164839,30.334151978007327,42.95159641962792,59.243319933033675,57.61070769303535,55.70700818349859,56.27081074605175,44.303161349886565,40.60871074649556,58.770979666017986,68.13579823922642,61.416741244332954,60.605688129284374,55.918027947472346,40.93756292366038,46.428516396282866,72.6316091203057,88.52218072374401,99.59934531703777,113.17804211685208,101.67233426940142,68.48284779593587,47.64740810280965,34.63288169281694,19.234767874917097,22.841971752720326,38.32002977159358,35.42114216914959,26.06513318212349,24.516730041790186,8.459844555756757,-18.414175758603655,-27.745787413949852,-29.28357038082443,-35.34894721759294,-28.36869481209233,-19.345445558147006,-36.753144089038,-61.40738486661934,-68.97340715710814,-74.31005983735822,-74.88569303034372,-51.40363196148871,-27.210635170014353,-24.89351414356939,-22.649526928033595,-16.920629413077723,-25.510459916279377,-28.684802850338457,-13.333217582070148,-11.453540691401546,-28.48893728271384,-36.16067197458534,-37.59117335271545,-40.597886888207356,-28.188474340238045,-13.227824119501399,-24.790492763716138,-42.98345387945689,-42.597361872062585,-40.60322244180454,-42.158007846307456,-34.18372728734355,-32.03231569988495,-40.788778412985664,-29.580078222136002,0.3775737188781836,17.957179705751738,29.638056563405698,47.75184933579376,51.74123381194882,42.168317115958374,37.99729199525355,21.31139168257313,-19.005856305713724,-49.01377575750185,-56.00507464243438,-59.13374060470146,-52.388186549332104,-33.25804944223835,-31.729844780782656,-46.59673519710599,-46.3445395078267,-38.97569345379449,-42.83974076065406,-42.02488039181952,-37.02919933975677,-47.82885338032534,-56.80335108410813,-43.967273772401256,-30.81903242100462,-24.226892031878318,-5.032926326043172,14.245151898570102,17.742856096211312,26.868353779238824,45.27753953302935,52.91840751279183,63.008535662317676,87.77496361690152,101.65662727658878,102.04655663180644,113.65573755385853,127.66934907109729,131.57622368281508,144.80272402132124,161.13137290031858,150.7850070418404,129.88653719866568,125.73380659028834,124.20820723504278,120.67080593702536,126.09854085620802,117.32683883297484,84.05766836397672,64.8674637493934,71.96894075523096,77.37988361668585,75.64362654150375,69.446346388208,50.41127007010656,43.51565311332539,77.37698341223071,116.9017536919826,118.7357450173066,92.17229600071218,50.13754333029591,0.151661784465297,-24.403808153977142,-20.901656651610075,-31.17725146128275,-54.23398932767444,-59.44929563696841,-60.70472217256784,-73.92627729967933,-84.29007814740294,-102.84940285855986,-144.5461809975146,-174.12587315389146,-173.03526694897738,-173.6808416853066,-178.064745393345,-163.54033218794635,-150.6245470054326,-154.91856821765256,-152.1228168867384,-146.66582589533002,-160.98163229377394,-173.42795567067503,-169.81912185653877,-174.7705185287366,-180.76725159112,-159.62631822853623,-128.79779429204564,-109.54599311926582,-91.19949267305859,-83.31093446068812,-101.66330840543083,-114.81548445303945,-98.44467089197774,-76.10569699192506,-55.07418095118575,-25.408569511086014,-13.31561962546767,-32.317994456328854,-48.36278554218508,-51.894792559542246,-59.626176662538114,-54.670121007808994,-29.316879708639767,-15.825129726432518,-17.397210398163665,-12.79164288590503,-14.59836957446351,-24.537303181355888,-8.45598095641359,29.28986898339536,53.00216266709831,64.25249175200204,68.98574310777408,52.13194127282706,33.54621811124878,43.61105118190168,59.335911601927194,59.868385599759534,68.08990777525507,83.63967428367252,82.44063172625333,73.78969338639007,63.96059603159849,33.947327189600564,1.9342331186752375,3.8830505851080193,21.79669295016428,27.95853401122492,34.50271937859623,41.27926871386663,33.15109238659711,29.11851128916698,40.39322424806447,39.17370001757915,24.52210492676683,23.025196403112172,25.90986869402456,20.833950317956855,27.920613866642906,44.760787200689705,48.39204124857932,51.882216144375484,66.59867319306954,69.49913870239651,62.757030551536275,69.68734789214155,77.33530483075921,74.89024114436204,84.99435187483712,103.12093395018107,103.04946090034423,97.82565546865655,102.34634574700694,99.53133595252682,95.92397161334956,111.11374021183669,122.9390069616762,118.58457076392489,127.14332090760058,150.8122986938447,168.25001228360378,187.46932207672478,202.91160368221787,180.4265655365174,131.06274167669181,94.20032681917826,67.01595114418429,43.291346798601936,41.135896493921784,43.04979192749023,19.182160705077482,-7.967445510413441,-19.692171845896063,-38.30951234391509,-59.346766839953524,-59.29630208604233,-54.52237812400035,-56.94231121233414,-47.39940107398116,-38.50549051018562,-55.762670256623,-75.18658160650983,-76.78950424552333,-83.16344411290358,-94.19232156989659,-88.47887594453555,-78.53459361358121,-70.83986822129766,-43.57982142848592,-13.01676079892755,-11.993731810473474,-19.58032702707758,-13.24319571538868,-11.468724151222368,-13.958926038958355,-7.524429729671759,-13.610716433156833,-37.49889041879754,-46.59364662572912,-41.88288638692539,-47.26151496682017,-48.21376595526917,-34.466945010010136,-30.515951978232962,-34.097353063065235,-24.02412566866977,-17.147095331700335,-25.772763245627342,-27.235245804031678,-25.82343116722615,-44.99668762502578,-68.51708938118801,-80.09275491946883,-93.69010312244609,-98.84222792318175,-74.57935510189068,-46.14517202050695,-38.81759416047971,-37.43428431414206,-36.65811827659712,-39.967929518256916,-25.037260931141365,7.700477608879703,22.328783354592623,17.813021927228043,18.326625051330943,17.672531393806835,11.036130462930728,15.552871786045815,23.658568054901675,18.780989655669167,19.35056448754066,31.919916182011846,27.518946319980785,6.966320978194139,-4.4972407794640725,-11.876815535642635,-15.494871445234153,5.747538527888783,36.085515868404265,41.6963401992315,31.32587744555481,20.131668948445228,-0.6622800263283484,-16.541870059178503,-5.795799948385868,7.880423650526627,4.079382671880699,1.746079832041194,2.563195691092954,-6.168500978134132,-4.639905324326213,15.839411568069897,24.56386474273577,14.840715841545402,6.874022675304165,-5.944069825115605,-27.52637966827636,-34.09365763094426,-29.869773039636293,-38.93569581193396,-48.13973501281059,-44.030981818616674,-46.346858086332155,-55.92398480492788,-55.76967228236741,-56.24632233042431,-61.04464456015335,-48.34715127173796,-26.522200437134465,-22.189270401182256,-24.31859462420899,-19.074180549195994,-20.331129839958436,-22.141689827237553,-8.059985366181161,2.136965537264784,-3.6898690397359215,-1.846530738689835,7.697099118524799,4.5489504122814814,0.8706842929483778,6.462800472837598,2.2186262848366747,-5.079406724477209,5.71020799014194,15.271964793023372,9.242665888334557,10.064128926367871,15.72625999214592,5.2377394986760315,-7.618075358455576,-13.466066024713022,-31.335224194702153,-50.204289315299064,-44.554006382693174,-33.75627714866836,-36.469498409481915,-33.90795543078133,-26.598459793734502,-29.189090186543503,-22.297080114927798,-0.2014413615746733,5.990246706801052,-2.8711143967958677,-4.127773181619716,-11.00626023083556,-29.45437155699754,-34.153838816009625,-30.50679435582694,-38.424317593052905,-37.915990554534176,-20.821672725897727,-16.203317347384257,-20.909921242375184,-11.144110947410738,-1.1056905567895503,3.2243077268065097,27.419905597219167,60.26124319903113,70.75968457916356,72.32997938103117,77.09074891532869,66.076627684912,50.74008763337089,57.607554890461465,66.94067546726768,60.994420543954035,60.37094062635727,61.76506398183444,45.47437747456296,33.337439292464005,40.43937547672512,40.21357336092798,31.4701679608265,36.26520771677311,41.33921131320538,38.45667080024103,53.43536529191559,80.2489718476488,88.62221763127395,89.7558357277536,97.6423718062899,93.86459333089475,85.49213281387959,95.74811254810479,106.66857525360177,103.42706156670903,105.99378706426154,110.23394568846872,97.4256019263147,86.31579049353697,87.67965084928275,77.16993682098332,55.71164022143964,43.92233903679689,31.441688138697426,11.785672321263792,2.540428722231969,-7.560914964299634,-37.59702006810959,-60.80110642225028,-57.77578884395074,-51.73721039135894,-51.603642194633665,-51.840319933104766,-67.75013567206008,-93.7651206718605,-95.22152688922222,-76.82907308986017,-67.65550060519683,-60.017438715815864,-46.48494008673789,-45.375117224431214,-48.4976154238471,-35.369135209736854,-22.656872491745165,-22.46083550283618,-17.49869749084781,-16.655311314310875,-39.477318379870816,-59.93684410564954,-56.93581359993276,-51.36595405531101,-47.995454538667765,-39.859539169374585,-49.33212918648215,-77.73000369374431,-88.91861835526997,-82.58222303034523,-84.91492127633731,-88.24722576286064,-85.97638007387391,-95.02010929859001,-103.31552437449622,-88.575771439549,-70.81066647224861,-66.1346796767019,-55.70681912486613,-41.07981840736613,-39.52484063251541,-36.06535123712227,-21.998673696238754,-20.62622699301721,-30.068330383954034,-28.19373764908239,-25.76723430754561,-31.969275514347046,-27.35332429161174,-18.09764597850741,-26.786949647167805,-37.146529309917625,-34.174772285772036,-36.6287850344317,-41.19771171555663,-29.38376858871724,-20.34732636914172,-27.96660918580616,-30.1838244820158,-26.937042882839993,-34.10524363575484,-33.25767522423775,-15.050146357850004,-7.6606118802738505,-13.80140311989304,-11.739369239499759,-9.488066614023603,-11.775519698338114,3.256749173450528,26.849263451633885,31.66238412377074,31.146380050386604,40.12239508169739,39.77245488136562,32.69842058112108,38.57824850883433,40.90703491538619,29.447819978116186,29.99559750021759,38.722201385931996,29.79993106015085,19.52981285758016,24.733911148292094,26.24214798816208,26.358672343368525,40.740492185938905,46.1860083608395,31.122485380478402,25.938209969731048,33.6976766876486,33.1238459249686,35.66956795674987,47.00355980018787,42.52803580050267,27.68263345843357,24.266099749588427,15.12291379044379,-7.103504206435857,-13.065653713636038,-4.968928948068307,-6.131383982526,-3.5977664392704276,6.381430271708057,-2.9080709563508815,-21.922820283380467,-23.940315529439786,-25.769170715990242,-37.66515367344581,-35.841139896310835,-27.7761058472126,-34.80784820511984,-34.126331767101696,-14.06880431065625,-3.2417566375297664,-0.48580694100354727,14.667661209781425,26.445541066195048,30.307667876845535,53.11939431265096,84.32397875177944,95.10133174002331,100.409980071253,111.41609167732784,108.43682112453115,100.05428855127404,106.38041944160713,108.87431396709691,100.18780235013386,104.43050728425727,112.24019687374839,99.85794319313374,86.89762113549574,86.50904143197171,78.64844291820042,71.01761107535752,81.14733367381123,84.98815858539669,71.86130274897911,68.70798662979274,72.24996083923857,62.915134402244405,59.80951018860853,71.23196994192335,70.04471079179065,59.24916589683582,58.983953713534575,53.50674615359348,38.58909579243875,40.57633438682129,50.657164814296756,44.21551064222509,38.461347301445024,43.736782450926185,38.92877862376929,32.11044320793934,41.624769817759336,44.556738088488736,29.980967041857703,22.606971210754548,18.067190161796542,-1.0687873955361775,-12.340571541135164,-5.1795280556125896,-5.4726357469192,-10.996645208532371,-5.372541671482339,-8.505519422439543,-26.00460780092951,-28.88274165296133,-21.690039506681078,-27.64259922468136,-31.78597377062067,-26.4504515702939,-33.7365201977188,-45.07153603979938,-40.0369323690816,-39.225972985967005,-52.022943942964666,-51.16128385753395,-39.67772111303605,-39.359748821168665,-34.31556101021374,-17.18072817637612,-13.707455485279937,-18.894211723355482,-14.456769478240929,-23.48654430919908,-54.64281922814902,-75.17909869874642,-80.07382519115806,-84.11475854653548,-72.77071676504596,-47.70499095133083,-42.353236478695756,-53.810438552692695,-56.543155857004166,-57.85934150174327,-59.19819301367207,-41.160197726405606,-20.302091827307684,-22.676291387334786,-30.46695787519606,-31.5117852770483,-41.67480431959952,-53.40025517154399,-53.35024354515886,-59.04811867822134,-72.2570995036575,-69.45882204635892,-61.36347275282503,-71.37365629660633,-83.7140330296027,-87.38154899044554,-97.73000992624502,-106.05947384870886,-98.35680448220076,-96.07096416102021,-106.15687438093508,-104.90619537066206,-99.37581728352023,-109.52041948900313,-115.39573668258363,-104.15160008378817,-96.36130365982407,-88.00409386497967,-63.65848191191749,-45.70473690776726,-45.11364442404625,-37.85096734866461,-26.857354658941865,-28.18666826317352,-20.8647845144061,4.356770330462721,19.260037988522985,20.18995549957336,23.602918291693808,19.945227525936097,10.435411478447428,20.261004589343937,38.95789264371158,38.82090306399908,32.43722484124802,31.882576942964103,21.767248022637958,11.398128179744637,18.68385712119254,22.582802775205643,13.157640072209627,15.80232332365813,27.304183847145765,26.300800693241545,26.478031721714284,32.317923474323976,18.424670532432515,-5.104137038378831,-9.02952840354008,-5.986037190566992,-7.577423286658634,3.8052734822882344,17.695434056861583,10.740526699988553,1.846760020498353,5.324659721972784,1.3992141757000751,-4.633413660957489,6.043005548503003,13.180017250623422,4.5528400803796,3.3924817797821682,7.720143258168184,1.1839964011841149,1.9926120752282461,15.367784594651363,13.701937823949669,1.88240024786292,2.3342753614577307,-0.14852078666340063,-12.364556554426802,-10.39371754787576,-2.2596850326747244,-9.324007209737147,-11.309437461332317,2.4012753805729217,8.019495538702913,9.77495931151508,23.147481873713435,25.071552244431984,7.739299042350057,0.6492279834299824,2.140574484821003,-7.122725554463718,-10.455925155744946,-3.381779688270719,-11.481377030267867,-23.67596935116479,-16.11224662636923,-9.313842141040155,-12.54121384586261,-2.3965211598496694,9.66131888157695,1.5041366502309046,-2.672314091723385,9.878309426438674,15.838281093473842,22.362487257844975,45.21855409954041,56.510910117769875,46.37786976859839,45.540706036971144,51.98363359751264,47.55619649207764,51.31779101169738,66.25627970161287,64.26118451913423,54.73931701824172,58.52926528260862,55.04377979865258,39.539844663991026,38.96057747941828,45.42732647033697,40.53054716234824,43.41297756702841,55.85121320732169,51.679689148383275,43.19804425416593,51.6138280718391,55.03287991220759,46.5712867377628,51.119833822463725,59.46603536559957,52.02125147918793,48.829062894009326,55.80024938456721,49.76771535948603,42.33786559052271,52.42523469857375,54.79094825338233,39.87559999507309,34.688747220148514,35.9198650289318,27.943133684250647,28.856360997493717,38.153925902272604,27.059432671145892,6.481497402374554,1.7493313588356696,-1.7579033882800328,-9.284588303586794,-0.9515073350155285,10.205556129485686,6.315356646862638,10.371326877043508,28.478191888795145,34.21150875062286,31.366609642739594,35.51245564056693,32.807688020774975,26.517495001533256,40.15511041098781,56.53497096249258,51.368121515589124,45.28803837589062,49.48594988884415,46.79363950061257,46.07758882501311,58.128271076669165,58.161124650155756,42.749022069776686,39.02502500495831,39.96409129252876,29.533755017909673,28.55141529586589,39.89096806588663,36.13498016948643,22.296330082173522,13.337700526948744,-6.060476855615372,-30.113665341396526,-30.67298660694594,-21.81191009157122,-28.464340108228633,-36.45457996562514,-41.30435955563282,-58.538480741724946,-70.50816627126225,-59.444688526429346,-51.15635859421442,-56.208493635500055,-52.63736896909608,-46.53608765331349,-51.4303740320761,-46.18493373047924,-28.94239832035558,-27.620339330350745,-34.03982704845512,-28.32268892761801,-28.891681560269944,-39.766742594879254,-35.09257284850573,-21.775160257407396,-18.06897267864061,-9.075543970264821,3.2534105723270277,-6.4728039952498495,-24.168966082925145,-24.837612990437634,-24.42157237582215,-31.429876972951398,-28.803858169299474,-27.403701239491546,-43.01347346426269,-53.02120470163739,-49.22154275856794,-53.88206921394352,-59.30171857799144,-48.076235747339176,-39.64263730246013,-42.49612540716578,-37.71139480270341,-34.27603582634233,-49.48966698416192,-65.35747633780383,-73.71543148803676,-88.78659474713383,-94.05339645854099,-71.880331747399,-49.360451609914314,-41.30942343733815,-30.775024959212026,-23.6532502207464,-27.997901753557045,-22.02372333349023,-8.147931755126336,-15.714974629161311,-35.10402942469092,-41.45293859502307,-44.76650076241564,-46.69616324106269,-29.03655823238178,-8.280640238210943,-8.893063008448316,-15.758909730575079,-21.128045519954345,-39.94775910871887,-57.37735530649026,-53.10989299500589,-45.77026174300586,-44.89343136842921,-34.20370792336481,-24.53269765871596,-31.388033574176927,-29.623869197435198,-5.946470392900424,14.624680004441734,25.974301036331845,36.25718881071955,30.289849830864764,11.643424814122804,12.576328387898092,26.459905033045793,22.78422114600476,10.816350303116575,3.8051241805196936,-10.760034405632396,-22.439945174716282,-13.933853407523223,-7.375815697652011,-15.840136253102427,-20.80991324127672,-27.98553464225328,-48.82590946700396,-55.45151299240676,-36.51338279692354,-23.16959253125163,-24.568751638232033,-29.941137289578037,-50.29675016571318,-79.71490791859321,-86.66872569905749,-78.51158784332549,-80.47900915927264,-76.7209031088331,-57.75430862361863,-48.55730158921852,-48.480388285740034,-42.60480391069501,-47.82390733531256,-63.92000672403912,-58.91597127159702,-37.79383212589927,-25.902581256667656,-14.12043994798096,-1.4566055982768038,-9.812086911123547,-23.802617674975828,-17.072680123615115,-8.930137981989287,-12.906841279278042,-10.942003146696027,-10.112864278541824,-22.98080509644734,-23.952344306035755,-6.477413280828037,0.5600028797521093,0.6825526245557192,9.91514632084376,7.864726223805732,-7.943007365464267,-7.732689603411013,3.035790074617105,5.858419661586817,18.06406566445417,39.56486171532623,41.583945612310266,33.60123891179509,37.59396246680409,36.20819269884712,26.45926861998179,34.597056904190545,50.7370256737096,53.96087454498156,62.579913591393584,78.28986168559535,73.24048582149547,58.308531776903436,56.881369443365934,53.21779145301616,45.94425313967084,58.33376159243154,74.26812615251278,71.3571353435321,72.06885636013607,84.42016148001296,86.65823655112007,88.87700304012685,104.50265606493858,108.26655240724867,97.15809803099043,99.87002554235603,109.43534486318366,108.90221257627523,115.307290381802,125.44317845852537,113.6066004068056,97.31587659148607,100.52081666527603,102.68673049842751,96.14569662143165,97.76508637028434,93.24254899533547,72.48786044683824,65.6279668126507,76.49560832133791,78.77345481669863,82.91644428375636,102.5176643745898,112.55060677723803,109.25293004272348,112.9827720822977,108.73345164811106,87.25905865327971,82.70527847944678,100.71979852336369,110.7022454366407,114.53916705348522,118.97333676532438,99.63698851807128,65.32384916367258,56.81312963676645,66.4981479270542,67.07112899003054,68.49312029086767,69.29186890951394,50.87595237790244,35.349994203890034,43.617313548872545,48.14638576038386,37.13530692471378,32.260511780292404,29.821736703577546,20.26394054715699,21.919410670944437,31.923031984777765,26.38421619972336,17.97638880728609,23.587176630415065,21.786007991168354,6.718605653935067,0.624897741893356,-1.2151731607024632,-9.282403193156435,-7.221324229466088,-1.129192413879685,-18.31923339518416,-45.60547178320333,-58.27861166476866,-67.61734245572725,-75.45475318101914,-64.18718437990253,-48.577232654398614,-47.94218067923876,-46.28559740992499,-41.19674434295887,-51.154026385010475,-62.671936329576724,-58.68853235408052,-58.51269020940873,-67.72438016103739,-66.06366168669625,-58.965398760849176,-58.92016528963787,-53.72536721436697,-46.54948313648918,-56.33057716841232,-69.9372149003537,-68.94350784479934,-69.16971258276655,-77.6693438368219,-78.88760923475735,-80.33827904357054,-90.61387338904272,-90.03454582079821,-81.86476276319833,-90.04939482282822,-100.96348756345921,-95.92623217755613,-91.92809738737868,-94.5524155893223,-90.78123459835457,-93.77402565194105,-111.83285849109352,-117.81030980820508,-107.75358449619578,-107.9840251098123,-114.34326421061519,-115.00449746381713,-126.43244763213484,-142.4642514356657,-135.6421364772566,-119.2304655224766,-115.37953313149444,-111.6833814728114,-105.89688082802402,-107.87421146422318,-97.12944708964748,-63.04927647887123,-38.299089477467334,-36.900854226948304,-36.419267629313254,-33.28522517260869,-33.79790738495843,-26.32370225723182,-19.705673012982036,-34.825503078243756,-48.95625922528371,-34.23473081043053,-10.248848613873413,5.194616715029033,21.476446714436534,30.701390868305474,24.609706776971894,27.93614902723232,45.80007920514054,49.801594537846725,43.05223272455751,45.99536799638887,45.26739823014259,33.83872527587412,31.341757262733534,32.369351082287814,20.986839835357245,13.765484050724739,16.31283934195494,6.8991378348464645,-6.353495577834775,-3.1219071555018174,0.15141928566921892,-6.043639879192625,-4.764633563966067,-3.9967882779695483,-15.93172347623781,-17.220940104881613,-3.5223548369851745,-4.661240960624143,-18.809198709441965,-25.92962233365353,-35.58939610297868,-47.679797493592176,-42.615459614900495,-36.34455842688952,-52.47704429224592,-71.74423526125943,-81.10350392559344,-94.28903333869746,-100.18918322066204,-86.22572347531309,-78.58393149367171,-85.98164406655917,-84.59345926098574,-81.57491788689353,-93.6625709292081,-98.25737389130956,-86.7614078271802,-82.39972828719817,-77.58676044129638,-58.154442647149,-49.69882185766493,-57.49959374624801,-52.37370680004402,-40.54267668651819,-40.40145048898631,-33.442195361872976,-17.469566798668033,-15.508830571927714,-14.224865204034014,3.1330704129581903,13.653646877290075,15.061182719450215,31.74976700152324,49.981743641915195,50.72315964121963,54.25780046625687,61.05878044887165,46.68892688895521,27.455331029463018,24.162760324459047,15.957786320715655,3.400025891857395,12.682941716437332,28.023925040731324,31.955429404664173,50.07120191867104,81.56288579246112,95.96270994770828,103.8908844456349,118.61287863338501,115.59825848476868,99.86235712142317,101.82671024802835,106.76708293319311,98.44690545237863,102.80525870347634,118.65001247305236,117.19893872409718,112.1740364770567,117.6363476446265,107.17339355730462,84.3288985068269,78.6136040833882,74.72642488725069,56.8544360148029,50.40839100282951,55.52739425054283,49.616630934859614,50.65280318174216,71.99379712413983,84.1757021872946,84.59523556404015,96.97012003476163,105.54844590474445,97.13417317932542,99.11281660289916,112.01900378488804,112.14341146900335,115.52681272220782,133.57012569346475,135.62968168142365,119.6002761261727,113.63329251118192,110.13748491389964,98.93035207628567,100.95674923333226,109.30677326005366,97.05706866183586,82.67148209093656,88.43886741465255,93.98484143637008,92.70734832079785,99.30972837570955,100.67558977224726,90.47302872623612,93.86534880934632,107.19502612997586,105.75491105962408,103.50759849044945,115.0601983180018,119.01734579171456,112.01814555110485,109.52609845662643,98.50408693854604,76.01289286627848,71.92448632184743,81.71803505958187,74.012101981883,58.48578441451603,48.89278866920865,25.158609747921897,-7.445321551779211,-23.833315564881843,-38.64022183004513,-62.78327103404961,-68.93223009031912,-57.20594009977779,-55.057323236003874,-54.91116222840685,-47.63191682107532,-55.236387883302214,-71.76838785803633,-70.13762860636963,-65.09106068277487,-73.92135388757774,-77.1621497178013,-73.35963342611149,-78.2876456804682,-76.22271323598869,-59.61403692811835,-54.64234437818762,-60.61876247189912,-54.53124566020479,-47.18428616060139,-50.92964951098169,-48.19746683074773,-40.416500454314885,-44.80787984239703,-47.201495192729,-37.630231637133136,-37.7840295637688,-47.243320142217044,-43.291112047937325,-32.03976849885031,-22.962931369444572,-2.3690978741989746,17.995051325843473,8.931380938154295,-16.932045894287253,-37.35849241101546,-60.764180603373454,-83.36120494652046,-86.44239665712884,-79.61366170294578,-74.14514304480886,-58.62960091346122,-49.137661232509835,-80.40216190140342,-134.09495256168228,-168.7054118644159,-180.83748339101834,-174.9721708713603,-156.731157475832,-158.53897690689914,-188.59256390682805,-209.02836066787876,-208.14072071119475,-206.73802789742587,-199.05217129120743,-174.75116216744226,-151.89515380052387,-135.6240840950355,-116.44414128083747,-108.66135391155836,-116.41076124957584,-110.61959045395942,-88.36112395852446,-74.72489484471461,-64.22461108654143,-45.351089761163735,-35.50148028662939,-34.554501773696806,-22.74316503310979,-9.501726109160522,-4.661233954825208,9.040837283227686,25.759340994088813,22.481921603462105,15.269371229139953,24.584106494412275,31.40917786544278,26.286484949914392,24.48656073105778,19.8717173188461,7.963809326302114,14.430672661308865,36.73859153376601,39.36518702750851,24.597093214164943,13.775679646197041,-1.809276366163699,-19.12302237390367,-16.40219379824116,-10.064090594265597,-23.50772138169537,-37.731968768082936,-42.26394455099525,-51.80865941106256,-55.471803610233664,-41.51374396594217,-34.48076708423902,-41.74156384039773,-39.072904516636534,-29.13663188578036,-27.618571527440192,-23.847957816151702,-19.478707355882257,-32.696359978068,-47.289682782128445,-41.937747449906766,-34.08773859178548,-33.68655653520821,-27.750754636527933,-26.581445692214686,-39.19895344791635,-40.108207775857096,-24.990442859484894,-18.38321585509175,-13.892768915784098,-1.6117363800707976,-5.365075163868143,-23.316014658663565,-24.154141055148013,-16.117319217608348,-18.247185876181128,-14.004843899000132,-4.915595889182013,-13.367444888464433,-21.405333325150686,-10.504194187521714,-7.535267417034058,-19.546431808526194,-19.605549459832623,-12.468934220042165,-11.45776488995525,1.7014041799121982,21.920391351169414,21.764239691321244,17.30753739417721,27.984541375587668,30.87544982160284,23.551830325425914,28.33121880540719,30.765886281952774,18.927842124744423,20.444140486219723,35.34189438764281,37.309672353744666,39.12983354022937,52.1126844344012,51.51422907322506,44.22315015751515,59.517393036675095,78.34378990747695,80.64308116613927,88.80895042844655,99.77795201438701,88.89775860038283,74.9689840771014,74.57273954393746,67.86650186365185,65.14402407895686,91.09045963192693,117.09300053450347,116.67544645892524,111.45538445510164,106.63878712245261,90.4239926179156,84.13712773424683,95.10076450471078,92.97110497798684,81.34798949330008,87.06547623810062,93.998554041848,86.83235697195792,87.48699642643268,92.78153837693638,81.4503986450255,72.14237026675845,76.75800118461866,70.45796325901622,59.48309311349558,69.29717901446737,79.68817870459785,74.60289772422254,79.55324061106613,92.92081204015844,91.70337602018847,92.10904574273118,103.74465953512652,101.44865010039862,92.63863366889152,103.36743237819945,114.06987318364799,107.03772472385218,103.00936323281142,100.10485742431464,80.49581348474571,64.79134878848066,66.09472069508872,59.32120206824917,45.68093821825968,46.10251851024084,43.98916254077559,31.315846604992338,37.581491967485555,59.728763575411925,68.85382871596227,74.69656626670493,87.58983731096097,86.8549425719015,79.93841082013212,91.09510946434689,100.46027706886855,91.02259857889075,86.45428398369675,87.9259617872313,75.60296304051018,63.65689036628716,62.73659073177802,53.52038789560058,41.222545581805065,43.12371231034484,38.504985388761945,14.09285499105939,-7.407036075131291,-22.095043925123843,-38.21633901739037,-36.767624746699084,-15.710136370916885,-5.750957377929636,-8.784966550608825,-6.664988353487967,-10.56907921507194,-25.01583261480042,-26.66631728372277,-17.362177719995948,-15.02099772553698,-8.820294096246704,2.02641022212321,-10.542811045853348,-41.24373189881246,-58.668205134242285,-66.38024866991674,-74.09079503912722,-69.69887123728078,-63.878262736761755,-73.67110165277523,-77.64201779051277,-63.029679998569954,-53.79876885702289,-55.261054513225425,-52.382499362239976,-53.434246642176305,-62.49072933316194,-59.34934587378348,-47.3697328733742,-47.188052658769905,-50.27582195194492,-48.86165844165275,-59.46464849133998,-78.03060530416167,-86.9635441431788,-94.90660781919892,-102.95085496333793,-89.96541558496797,-64.44290977616075,-55.38467403926629,-64.16958225862109,-85.23782091344609,-120.50148764647538,-146.8961891065387,-143.97168806147175,-138.75555103722792,-155.93701226558332,-177.70335047890893,-191.38299067453949,-200.02210776173916,-191.61289675505046,-171.67250950500082,-171.76735900908585,-182.162790729402,-165.51468549654732,-130.80414986264103,-104.88020720700138,-88.56334696170012,-87.60289915091137,-103.27676201368415,-103.16963348186428,-73.08432537964109,-43.87324738831426,-30.662682569951805,-19.30496155907457,-10.23403147421055,-6.535611734435706,4.6995907093592155,18.034870942578237,18.144276595871855,19.720411139721975,33.834972881596826,40.793028093341164,37.77346936615383,42.460358950189196,47.60944700525897,41.894644579795354,38.02873738765716,34.752713010469954,19.38391011743638,10.868932187734305,22.641920520658264,27.6752154602198,14.890270254789154,2.574447108277033,-10.576579617153543,-26.02978408562584,-22.93372918074754,-9.346804457690478,-15.578961191367478,-32.86995930162875,-42.02162811519267,-53.95038930404043,-65.6996842269436,-58.723341586608484,-51.15874783636457,-62.28338483133892,-68.99227484694481,-63.350188877962225,-65.80989401552681,-67.86021465959176,-57.76434381409598,-58.61228336867967,-73.7756986689568,-77.63669241676541,-75.73913041562894,-82.05833192955214,-78.56480153209617,-65.18189721631994,-65.46599537909356,-69.33919837093525,-62.80248753356196,-65.97235125243706,-80.15229820725453,-84.98785043851568,-91.36980050469188,-105.92718711204162,-100.83209679460799,-77.64175128017793,-64.71154256335817,-54.11021976847673,-38.346650028137695,-41.634181146009965,-56.5977449177484,-52.227542269573526,-38.95668806073475,-30.272669326608145,-6.422283054665676,24.895113349586172,33.87544832677422,33.750981610133806,41.62351105324685,40.72345862242575,38.15695758929459,55.90254443965954,73.37379824421114,74.38159299930993,80.44945457616225,88.1426363469586,77.57423921107505,68.14964305314919,71.1636848164705,63.884001737000546,56.362084584567214,73.98295722712612,94.33264823172054,100.1153087324185,112.93665544492518,124.15966886843339,109.0226060493712,89.99879740905409,81.20222461276461,58.74697095251734,35.689572132336146,41.776999979533116,53.12648244307156,49.345387424953266,51.007458224342656,53.21345167767105,41.85303423609214,45.90426615106204,71.93929831925179,79.92242769383361,68.05306076603773,62.198639592547835,50.81288721809902,32.78705932582582,38.623858626206584,57.59489500425744,61.99917719583823,71.15326914486982,90.6474417078269,89.52894139406108,78.72351280964816,85.81337468466502,90.82235876664423,84.98358472670049,93.32279969446422,105.55857355649913,100.87465310792705,101.81781934534592,115.26433688524865,114.36920592811803,109.52579658776304,123.89460003449769,135.14765917930097,130.90000991149,133.37570989759078,136.14003746225907,123.53547286823127,119.49835629279741,131.48344327710535,131.28174590149735,123.70243870877326,129.22039699791304,129.0789868719539,114.09506360504335,108.18396707183031,108.36430226084234,100.7409300053389,106.55680752524623,130.42555339700218,141.96146788682483,141.9740947038185,149.23895595005976,149.32448090155432,137.89521222756494,136.65317503805082,134.58136550946247,113.2191911376148,96.39456130002685,95.34131398358167,89.13451635261278,83.13349015186809,89.61743214361813,88.45788749489199,76.17336723663257,74.23188633340729,71.49915678202274,49.54182658563909,28.793262937679266,20.222800271852158,5.892829391883545,-8.146590304055072,-9.262694170010223,-18.620719526878137,-39.45163945356937,-43.39891205998157,-36.86381596823731,-40.873988053797845,-39.3114815568346,-27.46364333912205,-28.777714095112117,-35.65279221401582,-30.513617604863978,-31.818383309697396,-43.93474533436746,-41.60786546006423,-31.989154358581295,-35.88761902651979,-36.70170982154037,-26.166402039533974,-25.245886376350672,-27.88986045123074,-19.393231440548263,-23.8115739771551,-53.19898042526765,-83.23522554386788,-111.00348994678947,-144.02792986085183,-159.52274524851094,-151.88275621113897,-148.75587758189107,-150.76777818285808,-143.58744944917245,-141.59877757461902,-147.88236322931905,-141.29142239538513,-130.04267715280346,-133.29821238714493,-137.49963838018132,-137.53217945276683,-151.59231731175038,-170.92486734382007,-177.49331485660676,-186.3293400658538,-203.85899666324212,-210.30716143091615,-211.13110079488044,-221.87489611229927,-224.92325712081845,-212.22937894483235,-205.39579331403888,-203.84605912044174,-195.3727272899695,-195.55306305939686,-209.18167238544007,-214.06231176782256,-212.03662196173246,-217.90870699436218,-215.43693615237862,-196.9797850769727,-185.81614888145978,-179.13887247194236,-157.5245781016823,-135.2373183974227,-121.87545623885069,-103.43216389645085,-92.81665059163544,-106.44796582657027,-115.03581583237661,-96.30761580793553,-71.57039233521593,-51.54751890140015,-30.332746641678867,-21.70632683938658,-28.19176723559311,-26.11039221697211,-15.704458579084314,-13.206425205512812,-3.8256094785386057,26.215391344526225,57.467640727100616,79.59696486544472,97.15307715654184,98.04090727373668,83.44001269570401,80.48053939696207,90.21718031381502,95.53919545374484,106.76046646838365,128.4066667376108,135.7618195665185,126.34585241589639,118.23377503370634,104.9500898058323,85.61220734947761,82.3687640877902,87.39552845517957,76.93166692583874,65.75777383111837,68.71101735773786,66.6132685527923,55.21635825464931,46.19804038935084,26.178667378657572,-6.787003313136887,-20.97209821722565,-13.022983643028574,-9.056494949406336,-7.08212997392158,-2.598473358421417,-16.047583003320426,-39.72411269886738,-44.76056150309917,-41.036655756772795,-44.4292446658702,-41.284489939650015,-35.65283769148979,-43.65871209506438,-45.330788273743,-27.45193250266071,-17.199846078365113,-19.988272109870362,-15.607597230249311,-14.514547187031217,-23.87001730643891,-18.829204944431382,-3.059368709369325,-0.3689194643858018,5.139992506092476,25.85592084332081,35.632480661130884,33.95707348522528,43.767324832336,50.3312963357838,41.18178699021804,40.52237122813217,46.612656433076985,37.51070189202397,29.06444698625792,30.45023786442072,16.18803463530471,-6.19989164074998,-7.312018465660762,-0.7005872237608246,-0.7487918928702815,10.146649232189402,23.70990066302808,20.27256503388395,21.22533833566717,34.30322591848099,29.9664129524641,13.56392979316174,9.806820507810258,5.129032563823628,-3.9507769137861626,5.866503698827557,21.94064253663514,23.009993937604957,27.16949647645839,34.411609355272375,17.88949422896883,-4.072591721179183,1.942315710445718,21.899838856191025,44.15641546232805,76.71351508864821,92.29773011716215,73.29694671191395,60.37234637091137,68.82422782406591,67.65123019067273,62.635805743646074,72.98010829986536,78.94228844557921,81.4308255865998,103.18456385229052,116.10242253183984,93.01885741327064,69.58862419411513,65.5178484566567,59.11442741553749,59.248271119104494,76.55067488343713,78.50949567104104,63.4066412264154,68.85096613305001,87.07412812639956,96.17823833717625,116.51580506531009,145.93032454379855,151.82358971816055,147.10426487808746,154.4117203491098,151.18725103427244,132.18431793478493,121.77036979375248,108.17376087120836,77.4471916760897,60.89639139999138,69.7575175226466,77.82360703910945,86.42633397966617,102.1760290105588,97.41054224273418,71.02439914748285,58.06052522411014,58.12423163872725,55.77468034553521,67.34544740579,90.11192622618395,94.99133535219136,91.89593051315974,101.9214624793087,108.89743376836321,111.89427467652077,132.6050815623989,152.44242023974,146.4377552023219,134.6576984777776,128.1146865851502,113.48939203888993,103.85357860532231,107.31545409117703,93.98979486016873,61.32317469495637,41.15918633117897,30.007948145899395,12.865505903419951,6.609710562413928,8.055530082510023,-8.318549292090932,-28.46860371131995,-36.601333980016946,-59.06143831612478,-95.49713790698553,-109.94812551646878,-107.2896905725535,-107.96424550030041,-99.4271715385709,-88.35446955834091,-101.1340819506645,-117.61743019926497,-110.88754577031392,-103.74055276394604,-108.98287127637747,-107.49783798147172,-106.21626868951608,-115.42622254176376,-111.64527765069434,-94.19565694976846,-90.67768120705185,-92.19129634686517,-80.70105597650218,-75.0568164026783,-78.67967947845597,-68.30972301339355,-52.16771332609206,-45.052823828400264,-30.071525266418107,-9.908067172360756,-9.438581577932597,-16.63871478643299,-13.311235492016408,-19.19391414724485,-39.86537609373969,-52.847162856552934,-62.151888662031325,-77.0434411872727,-76.07430668038229,-58.40037812923825,-50.74088452764707,-49.86121054290514,-47.39973687020037,-63.264207379943244,-90.35596532812396,-93.53558400942244,-75.6583630301093,-57.367167689581166,-38.21770734470875,-32.43291287948113,-57.948694651873915,-85.40184030622665,-82.60926164221965,-65.47129928091029,-51.37248280407122,-40.68320345293047,-54.614173189683356,-101.48225941593346,-141.70601117966288,-152.312480321913,-149.84108808521037,-136.07577024690573,-112.75976691555408,-108.75191206556148,-123.8826271702634,-124.98148798961459,-112.71873054878851,-103.73825768058765,-88.70436539146894,-71.30428155116336,-70.97654182373027,-73.03082419570987,-58.979547168853145,-48.21977071411887,-48.40177688785401,-40.0613997425764,-29.156728495043552,-28.11054564875867,-19.28885857248018,-2.9577923842342866,-3.3455475384822018,-8.369336511109557,4.476751362409429,18.675178991213954,24.917831293266058,36.497834354989415,38.06063534913142,14.669112939710665,-4.183729123225913,-3.3771612752334272,-4.662282388930446,-7.4963430634989185,-2.2081289310159757,-8.030584626102693,-24.323988866609906,-21.750273427155594,-9.46395175862715,-14.78582202209688,-24.496294365892624,-28.061307646008665,-42.30286577555593,-57.61945574648137,-56.77660516951056,-61.48092615470565,-80.5473309743314,-87.97713578479116,-86.43958948072334,-95.03465612345697,-97.1589938182593,-84.18334851004042,-78.4840431890546,-76.12657276821636,-61.816135815090576,-54.67361471779102,-60.59634144795622,-55.416960571350835,-44.51060098982542,-45.861205660696605,-42.96412613266122,-29.510953651616685,-26.807479728497835,-28.223129759497958,-18.31348730879579,-16.731588235877858,-28.31740904252366,-26.583095260778315,-14.384581924875718,-9.310489808798312,1.5355567188915549,19.551889522852246,21.33555381865211,16.17172030327365,25.87298891861741,32.92377382077439,26.184539895297842,25.490270710269947,26.554867477768084,15.266368506043506,11.393387806175038,20.46668009340571,18.038804084087484,11.316836149236277,19.911768121201543,25.86326132701093,21.602051099181516,27.676896442809674,35.26162019344904,29.027792248205373,29.903958706831105,39.67231484983176,31.27556204727864,15.8108084727454,15.994131344940723,15.700330132727025,12.097376978204235,25.19870197251413,37.66574539132361,30.75264669297141,29.67816002398437,39.58872154058174,36.17942525654538,31.197130832346865,40.31768601700892,41.65157101866362,37.369686869536594,53.750769836182116,71.2046503391333,65.55005260012305,58.391363461594665,53.57539474727153,32.786302894604475,17.251338117760028,23.440420824553232,21.769962765571535,7.669327146037875,10.130405448538339,21.850501948390754,28.53141145391744,51.14627605823084,84.49071573386531,97.15905497168937,101.41203519347049,114.21645507778982,111.47082334319406,92.45071885152025,84.35629673929623,76.8921071206984,59.536519606918084,61.31648242630147,83.38076449797214,96.33355879361878,109.75308669372696,137.10761926623667,152.43189158385022,153.71335477005425,167.00292038951144,180.77577888904523,181.81743151336025,195.35690087897095,220.75067340249495,226.82805110343986,217.69965086188418,206.68157866144836,180.53447836653234,150.50813900856264,146.29002723099828,153.32135060337706,148.57592124527923,146.26853894542586,147.77123393766604,135.00469754084546,121.11388831838073,119.01836787126257,108.81112993461691,93.55452243506286,98.77622474568051,110.61812756741206,108.8648090641852,110.86884187742987,119.28892970630451,116.42195913641481,117.0037403296001,132.92933764522272,140.0687712908369,138.56385578611514,152.3217019300514,166.8761002772065,162.20252300118185,153.92709398215354,142.75123868823513,112.37979138783132,81.28598261447198,64.77159104894871,39.28367037662903,2.086022806969517,-24.169555345746385,-48.46011389716356,-81.58998858438666,-102.61240498977082,-112.64644670188915,-134.20488335399733,-154.42820583720894,-158.53702418172267,-166.89165060088317,-181.53424337748527,-182.30615821722938,-180.60733341378807,-189.24805725733157,-187.9458183277408,-176.49650220384245,-176.79918079093295,-177.05242143079633,-163.76685987455477,-157.00918515565525,-156.02358448594254,-139.47403038393836,-121.53797233860146,-117.50676642527341,-108.4833688601888,-94.44742457211007,-92.61962145781334,-85.41628109271015,-59.27586639112768,-37.876356853988206,-23.217396613977016,2.4891650069642175,16.341252467160785,-11.052529246288534,-69.55902472190105,-144.34929765033212,-217.39485563998113,-243.39804118188283,-204.91106770640764,-146.15355318569783,-104.22117922533593,-77.5729206329846,-65.08890900463113,-59.113967083448436,-38.65603627298545,-16.463659837553458,-22.26931191565499,-44.02635548295736,-60.33503813637385,-77.09387666348064,-85.43599756841778,-67.76183631690213,-46.17972339397422,-41.06188681951545,-34.884343792807414,-28.34411023303442,-39.54738832907799,-50.46138132361709,-45.27813947277069,-44.60911179418294,-49.260622755210946,-40.830426292482564,-36.01651861972513,-49.93596924372247,-61.190784563638076,-67.54167509119085,-85.89589225827284,-99.52090957710996,-92.13803678292709,-79.28049178000816,-60.66105989257549,-27.832862624420763,-8.944211331401444,-20.712603912216203,-35.13193980655842,-42.411499819039896,-54.83711704455841,-57.29983127266502,-42.555828186810075,-33.31660202833936,-25.78295471679438,0.14866057726871418,26.443314717028912,35.01036299081591,43.9911521108452,55.76333206230173,53.80925197316208,52.69648079250054,65.75763485779106,73.88093470421781,78.51053152324388,98.51906588778982,113.68760350079653,100.55009579054183,73.89756998758381,38.486287995873674,-15.243988993022182,-63.99559412915813,-86.91534661110556,-102.49461539093483,-115.63100853967813,-111.03422658363002,-106.47335735626307,-122.31137430052328,-139.7710195704302,-150.63312694896092,-169.67615079699266,-185.6668897408095,-185.93427805887598,-189.23214217922765,-196.03287903886786,-184.16922392928595,-163.20492083372548,-150.31261035927253,-134.36114679401567,-119.07996949064736,-123.39948547969641,-131.04112621609147,-123.16430745671857,-116.22883357650824,-112.12209586695393,-94.19670202367188,-77.47511230641109,-74.00605160808438,-60.73670653251019,-37.977783669032405,-28.991915374976358,-22.584438153354526,-7.751663756344537,-7.481812525563539,-21.169497879934603,-23.599470392812115,-23.0247329154969,-30.571182388446495,-25.622797166828477,-10.787342142435282,-10.519479572917318,-10.472946375941058,5.565059140907178,14.284932092429703,12.858390329923726,23.740797332321716,35.02581552632109,34.74070564598827,44.768369904518124,61.81442767747329,64.40070301836745,70.33939180068018,90.81332493009332,98.13003708510827,92.04808978107894,97.32204286242587,104.82139165390548,106.1574643149956,122.31807548688995,148.32829853577954,161.99663412279705,178.84708619567957,209.73456371371404,226.29802212435285,223.95271764521058,226.54904776079036,227.97493914976485,219.5687317003378,220.31900176631277,225.6839319206906,215.41572531844918,207.38243230623732,213.87576672108398,207.99605876601757,188.24670672664712,178.32282001000732,169.94198117786993,160.1865672293439,174.37346489976395,198.7957516645871,197.57370187223898,185.13975699018496,182.05031581527805,173.2606534164353,165.70561742536685,176.49832227482082,175.2135285278573,142.6811004191237,112.77069594084787,98.48086335258395,85.46113190530768,86.4668333889096,100.76386800402958,93.11909851835371,65.64920556655451,47.88026149848522,33.14104676703109,16.645982862359997,18.80331840225869,26.15766176161581,12.665197741049138,-1.8525003988499034,-1.2834179506799268,-4.655146957062559,-9.867103705507361,-4.541804441568245,-10.33164640068189,-32.66314424240985,-40.15332245742653,-33.56170715043752,-37.58688404451164,-42.77800176658694,-40.89431971951956,-46.37838243743375,-44.608376681523225,-16.949714604200352,6.688717741895317,3.406122251098302,-8.634906883200093,-26.682394772321622,-57.93262883894975,-79.0156608866583,-81.27545413916552,-87.35486020527374,-90.06770921083746,-69.65552861894334,-48.191376890688105,-42.911071369544445,-35.47570124139756,-28.141275267255452,-36.939096934341485,-44.328437355107965,-41.202698106033374,-48.967999502959785,-59.37896233079536,-48.32516178520808,-34.09278892583891,-34.754407413627796,-34.166003742602555,-36.61108080840004,-60.12557185190114,-84.59081647305045,-93.47103179455128,-105.72073747267957,-120.04475785555454,-118.34635548544364,-115.75207035345123,-122.93969481705646,-117.30913438422124,-99.1347543575051,-90.48450130926746,-82.80854217718995,-68.12618941681833,-67.79760405386435,-80.40918457971357,-84.76727320913618,-89.72409041041587,-98.94596488203561,-86.76733625049391,-58.18622007862147,-44.18336759316472,-43.489030903595456,-49.089892826607915,-72.50206178665815,-96.81764483675613,-93.72583247210444,-81.48010500808377,-83.36314832144791,-85.69817933825246,-85.39515958205646,-90.72807666716184,-80.43094948406299,-46.63626190893612,-20.260223868583225,-6.835176648921079,15.359843102732679,40.83173890754559,63.274883225246036,98.52529851014377,135.40673630768623,148.05221393590014,148.76490392837985,150.79594336724813,137.94057100162368,116.29560750948647,108.27624592080639,101.17574402918234,84.38980398817586,76.23792907632964,69.16867802106837,42.441258665402756,17.8583125513637,15.293583267172888,16.749591007410565,20.685392080309185,36.89305294847155,40.820395798378016,23.489904120656348,17.379821110209015,25.718680796039035,25.906234418343736,24.93881581250312,23.47606480624284,0.24291729891912084,-29.54001573882134,-38.39855730133325,-42.34390200061355,-51.743152970056,-47.948994109359525,-41.601954577254254,-51.45132621127881,-55.78410886437696,-43.92965163310026,-32.53511698561821,-11.559882491739627,25.54724552732334,43.161186592283975,30.156121791180375,20.162580353375777,23.065025575600075,31.235182148381938,56.98801533063128,86.66303400527896,81.13335805966608,52.3320829673612,36.311013613229434,25.035938720489703,11.053370922703037,10.812192757022167,8.489641331259037,-14.441113393749262,-27.53602379045135,-18.30087524473865,-18.054412090701614,-27.731819835385846,-32.630332807349646,-51.39997992399433,-80.83456176506056,-87.45612685053709,-82.01677729264077,-92.28234556201281,-104.40997809304648,-113.96434021635444,-139.2433974273398,-156.25635627149956,-134.5725626467565,-100.7344658776109,-76.39224709154708,-46.96931162071992,-24.975818527592835,-27.439676021204654,-26.498436715519286,-14.963501154610796,-24.39436847699428,-44.566394298651986,-45.32596348323361,-42.974387434799006,-49.47378273423151,-45.94443728512792,-43.24336505108382,-59.037547839264754,-66.64492461178176,-54.34742823393779,-48.84277344626814,-46.025935737570215,-27.309860085741107,-14.183429686379402,-18.49394455727041,-18.622351741566952,-17.698803887784077,-26.78646160858598,-21.265213765734472,4.136813018322259,14.978435758498964,6.944342363123108,-0.15023148175763665,-14.786709027598619,-36.80378774425142,-39.989716942151894,-32.70424224394181,-39.34325726889309,-41.725248373035505,-27.272022877056173,-19.612002731498247,-17.27768170602565,-3.9504579342098447,1.089308377245699,-8.920483572715384,-6.981907456720256,1.6452561523088365,-6.475574245093483,-17.070972111996554,-20.36614369685409,-34.000741343565515,-47.0213785808455,-37.03824805252662,-23.082255407333804,-19.157217058466884,-6.030041835320159,10.675607417049223,10.746009157224378,10.478754460719912,20.04970537332826,18.905930081661396,13.379054242053911,24.328671180404307,34.832600797143265,34.71669608831677,48.0666366618349,72.55446046543278,85.81030846849731,97.90462878484382,114.0916185411176,113.2763132592526,105.7699287827988,117.48048989676491,132.3419078136338,134.76434047626094,139.55617667342375,140.3397503999669,123.74220868804696,113.79919581572588,120.4505455898235,115.41085930987639,95.90673666936382,79.56219684905203,58.45789008842263,36.95814217202074,40.90981517521535,55.02765185622462,49.476338561713504,41.22162451361399,44.86720631350751,45.19436988967293,51.467665088047156,74.58559922856193,86.46794376025181,81.36630538261396,86.17757201186564,89.35506120871854,69.08567704513676,50.48282749431272,49.27137762232683,46.528744877446044,47.30680991928471,57.188019687281724,43.89866509619213,8.576111873066239,-3.9639049289655186,6.761663828112288,14.769190543514082,28.801026577616,45.939054995258346,41.34134411916776,32.99521900257774,43.9886742824248,45.65654266053008,25.33114816768471,10.507661240546305,-3.0927328439238777,-32.03875258706416,-51.46099783456898,-50.382776079625515,-52.916341333392204,-51.38148556606547,-27.977830394620295,-9.864848796072652,-10.658349173612129,-4.483384807141425,4.408632718963852,-3.077262316252116,-8.43541624499728,-7.035335714725022,-23.22220840991908,-44.95300341852586,-50.820452655806506,-61.601180259215504,-82.1293316072798,-83.51770421141451,-70.71886096129825,-62.8041408437129,-45.36679499967964,-22.123509322300066,-23.202165794010785,-35.38020484999025,-29.65472033858235,-22.504903157436484,-26.39969811813525,-24.29582687960211,-26.56723048854823,-50.154232096337005,-69.34251501512334,-72.24358486465796,-86.5124309050367,-111.15463287773477,-126.54642850736715,-146.50801974978145,-169.49285738435697,-160.96836610138396,-126.62625462601696,-98.00451431845136,-71.88710377011373,-49.52629889095228,-52.2823959433201,-62.43717141670783,-51.93023149580989,-42.4482698221586,-51.428541576203834,-57.13587977534915,-57.753404224894325,-66.62110393019759,-67.09013740776791,-54.25699056248175,-52.37655789866598,-54.02312359809872,-35.68814169055409,-14.64342279985813,-6.582691422649212,6.45550415293866,22.731998344651622,25.868772316263183,30.38926774702364,42.54686784990316,40.21565621197936,31.31615843963946,41.05131795826723,56.28179349210607,65.33237954700189,86.09682602396958,110.45531478513256,116.10232945839947,119.32800958585128,130.06082332935398,126.42595935346279,113.82187309856064,109.99644495026669,97.96165618844176,77.05704309583416,77.30150253554606,90.10178643693126,88.86478226704727,85.91977368478085,86.39661953692581,72.49052333775967,61.78021995183431,73.90747776583446,79.28765580208159,65.56611119599862,60.28979180296323,60.138792494149214,49.73992200402472,47.752170850883104,52.12819373481334,37.56650270113251,24.3721228221749,36.8101563888628,46.50371748518299,38.10789509751162,30.914139766778263,20.073239899821214,2.651887987409687,8.017539034899524,