7.041149055587596,-4.447221538385479,4.388257302788251,25.277854573812803,22.166303700420976,10.752329306221194,12.321857872068277,5.531541183675952,-5.356668765854016,5.763794839774802,17.005610658485335,8.171895375199647,6.2564732227995945,13.210795300260871,4.1045638467409615,-5.373802549941014,-1.2710273324132464,-10.776600406428852,-30.48165465971496,-27.471741560245277,-16.655646154681342,-20.837997246996682,-18.015176202428556,-7.6527187910161985,-15.235867540866453,-21.344938241346203,-7.265144621326109,-3.898415695004347,-15.793022847966482,-15.473569126511897,-17.72689968353149,-35.97175062432939,-38.13456507694955,-22.38590359870057,-18.68991667163665,-16.75899738452592,-6.188353765354464,-14.213298840424898,-35.178380273675266,-35.9911305552056,-30.76594111510007,-38.12296602952121,-35.14117841932141,-24.339006072168306,-32.27879960272297,-40.26686730074324,-29.65928670758405,-26.512389825784865,-31.651561956918016,-20.4905695186592,-13.086495382953643,-27.41388551659735,-32.878754637676366,-25.575387809175957,-32.10671048011573,-37.33324956840665,-28.473182297069258,-35.05866665492903,-52.56624109409344,-48.153523802292135,-37.5438260828477,-39.267556860993324,-30.60722365760769,-16.52247597752209,-24.419183029117573,-35.061699795020886,-30.35031853551144,-35.63266759162556,-48.867640873869064,-42.21033632199368,-30.359458690315186,-28.803570389073677,-16.218023379943645,0.45292167593941546,-2.9985886410457265,-0.39552001871046505,28.897508189025405,50.98977717235818,53.12739055861015,54.66958945116909,43.907359169989014,17.01174214077696,8.346630669048979,12.04422745750483,-7.064020687678762,-28.558853261648693,-26.47681018722269,-26.292155771536738,-35.44244099872822,-36.199743470704675,-46.17747705038836,-71.70777222974728,-76.77715125788046,-63.49687653108545,-65.24901376176219,-69.96543391367335,-63.63617778405516,-69.79923160677706,-81.9362143589281,-72.97848801185333,-61.85934872816713,-64.276111647865,-56.40877426232193,-44.129694750985955,-52.88084006315612,-61.47727616144196,-51.85615764205512,-48.701751677588135,-52.22949568330738,-41.82591585846906,-36.92329626160469,-50.824475707941886,-54.58000179897507,-45.60978579738884,-46.45851157773605,-42.32390520762084,-23.41067651719913,-19.15578751309712,-28.313776082906994,-24.09825458664214,-21.99892311343423,-34.10958479391411,-31.985257693940266,-17.290417256214916,-14.919913824037348,-8.855477883011575,8.587451985443401,5.926180506391835,-12.128668963847485,-14.089405530866484,-12.574345775403168,-21.220158174296728,-17.738461454294754,-7.188108881872635,-12.415324703693996,-12.200824216370313,7.32563692716372,14.277803753342253,4.70614993663646,5.54321235483693,8.127271120874346,3.1080829711014193,13.42096694378054,28.77191024468346,17.148408852238536,-1.8479756793623539,-4.540226965848329,-9.835554808320177,-14.970549190531043,0.02937712080269783,11.693504366355178,5.041329562626815,9.281077196443324,23.341206579955298,21.72293968488465,21.461456077721024,34.34167330496387,32.11330575723392,18.18236352057196,18.976889979461056,18.067134727680497,4.4658447875434915,5.833453829438644,17.427231337572245,13.065531747836088,11.427292703509494,25.887758459449806,28.772318626313847,20.971387927973957,24.01892452227325,19.17054890297464,-0.9774098759730023,-2.11607777732214,13.933815246735296,18.60966121530212,25.66794832814833,42.046103344813254,37.13915323412656,17.86745854008058,15.415072551170603,15.922788392049588,9.280969746825194,20.049024857739358,34.97061241117703,21.374165764415316,1.9461796586657956,0.29718310821084337,-2.632094968658846,-1.0097998163144535,23.224949965678242,40.563972598559054,35.367074505100824,38.224189039845214,47.13733987987564,37.80336964186078,29.98652018539761,36.514830326440325,30.64843086439251,17.716493201598034,22.004733660017457,22.657751370272983,8.946281570483947,11.212589075414261,24.191078889664713,20.58497299122257,18.336044607207747,28.641054431346024,24.304716917186717,12.461285232323814,20.31211777192456,27.125315100503556,18.359652010521764,21.614816700375247,32.0243322614221,23.858387137810325,17.532695295131106,26.03845955841559,21.99794114681351,10.849635611091035,17.234951179670745,21.07431282474888,10.90956107944473,14.060724696756704,25.300583913339185,20.37141740532618,17.121017531622098,24.717644071305596,16.339859346840967,-0.4883249043492208,0.7411133623263897,1.241410796151414,-10.792596782365749,-7.256533654580383,7.042975003022746,5.41813788670176,6.2216687922169776,21.139500396099923,21.54025247787937,12.939206243152505,21.30029309743513,25.35255986101351,12.701317382901971,13.105734815553971,22.70207856986175,17.433791319193624,16.666871357198218,28.786625572653545,24.61018877002668,11.507694154879012,15.461057302915282,16.873762621482186,4.531736252762838,4.655632571047187,10.873294903708253,0.9909301630367784,-2.3330701995387906,12.127804274903463,14.358429542985109,7.20087769766888,13.66856464927828,14.03551521373699,-0.7732581928942253,-0.5661519261419206,9.252322165931629,3.563812005344993,2.9698778614456662,17.04970698367005,13.711072358008957,-2.923008439668969,-5.729221984121832,-10.466758847037823,-23.02070164151736,-14.62208689064591,2.7857257916418563,-0.4246335962851058,-4.221019148041077,3.5893388012936316,-2.0211812186542164,-12.382521877922713,-3.9863345757754334,1.5639691206704038,-5.993554037408789,-0.18709741878129593,9.736624138456245,-0.6274343578855603,-7.968404432617901,0.5065587197962271,-3.0876292162104466,-14.195802425728314,-9.477320052436854,-7.396962004804413,-16.175595783510857,-9.049831959934767,3.228385460445667,-7.195200067467294,-18.163481585271786,-13.051496356468142,-15.04841170408203,-19.178579062328524,-6.879166093868417,-1.6828808098397086,-11.131311863814426,-3.9064906390877017,11.473591948304046,5.7486977312096394,-2.058703672229186,1.6607985352015469,-5.9429363143882386,-15.10427812071485,-4.190265397082374,-0.34914470198725983,-16.09734652707906,-18.78297760799345,-9.753121175880729,-12.869646766056182,-11.313051049117654,1.172259478031826,-4.481388373513359,-19.590201762061426,-16.076189450673468,-11.432880772462227,-17.35359748249205,-11.379655344521478,-3.06046154689773,-13.47100364746967,-17.22712464607333,-2.580882747505311,0.7584366250441823,-4.034548047482584,3.723290588510894,3.1975293727439373,-11.928465138542801,-11.6793389401616,-5.24467779828527,-17.094402586472444,-22.695471511176418,-9.76894771028569,-7.3346007313587736,-11.578215500825333,-2.699320009920277,-2.1859024954231883,-15.582716614342974,-12.491496384035898,-1.713633302414205,-8.751854606179782,-12.950777817042153,-3.4396697395397537,-4.893687714654816,-9.2108159697449,1.9866450997187046,2.2025255918008044,-16.518803335272064,-20.521970148400328,-12.649909368052654,-14.511662928428546,-7.458959041467874,10.216520142814545,5.114405904351487,-12.235054433832056,-12.469896181204748,-14.53775857392097,-25.693546072465555,-17.059445782916463,-0.728463658885568,-3.1690881061327714,-1.8108360865085413,10.125877941469998,3.07534664851224,-9.309081255680004,0.028453300749379906,6.23880927372442,-3.341704360588201,-3.4490482872374986,-1.5804924249394499,-14.350619694025688,-14.975720110494255,2.9723191580657398,5.6441605291699615,-2.8109502138542553,0.65178437393222,-2.7746439667010225,-17.89726180509269,-14.759225669862147,-2.1890672073603,-3.7423649546643563,0.8904527237127065,15.923517121678202,11.384235718641246,-1.1528183971229882,4.2178177323953285,5.1270011935394155,-8.30855193554631,-9.829088890593123,-8.728295092081675,-23.975887288261212,-28.025095456044774,-11.69429368170975,-5.010026847823729,-3.283574251295042,8.7330692960842,6.316743717922696,-11.059640214879458,-8.816768749762579,4.092786463522421,2.707412707189153,3.841132805039487,10.8184535913022,0.3146450669770928,-11.829898651985904,-4.001692800371151,-1.7277291247314532,-12.411746271518153,-7.115272323167035,4.944978361816968,0.8623215657068153,1.2818408336475642,11.704938366737993,4.955970581782621,-6.870408642005376,-1.2072098583999828,-1.6085728600703422,-14.33703699088095,-10.928893050609776,-2.4288355794689345,-10.943118928604264,-12.020374339398098,2.1443079324366927,3.0672858953147495,-0.5850124779831518,10.262045038011784,10.201907682884993,-5.446156755378674,-4.160198785107855,4.985695874920539,-1.4011901089095602,-1.0356444499261956,12.128111001011977,9.575103346416164,2.152291796351799,11.667054720249768,12.648894069666959,-2.7386702130622496,-2.5424142568753125,7.135960624488571,3.2139016636340614,4.325108458057604,13.279410965845146,1.8487164502145497,-15.422848943321789,-12.249286676034195,-10.762342280580732,-19.169565332799475,-11.284023673147473,2.7890553850939965,2.1401005898048915,5.923066456791021,14.234955849451566,0.7176084178119195,-15.679831653140683,-8.316194422732405,0.24730073551776321,1.0195670567472759,13.77940328117317,22.254569648035552,8.957356686021804,3.1861059999292336,12.508018118220956,9.031187338926728,3.0195550788649608,12.826829374195542,12.445426904657854,-3.749774470446429,-5.877146555149448,-2.014266038103012,-10.75133888417701,-7.87319224407222,10.088379975440649,10.745985392448347,2.1380844326192783,5.516158056184144,0.37602608644379387,-13.315637182526483,-5.217285762678932,9.199242073892249,4.548703828808458,3.2340878692870074,10.285110903775196,0.5127094898130053,-10.178079419428123,-1.0129832694961438,0.8557621424673596,-10.500592231487246,-5.694376411950491,3.964895825044076,-3.124135679770707,-3.9882313230441757,5.669440836805826,-1.6430531567438384,-13.261542073568869,-8.30188772860348,-9.633461388181107,-21.001975927282917,-15.650596713835437,-7.092348981427742,-16.689444991648838,-20.05301429412538,-10.152204460222684,-12.632044461736681,-17.063672184684936,-8.703134118104868,-14.453574351892174,-33.727332555130815,-32.12279982860609,-20.54106880371686,-21.86808446220619,-14.796195950949446,4.809707837532332,11.85423332690438,18.94043367179078,40.32371319794021,45.73991324856542,32.35522172695247,35.03297425219203,47.15387343739831,48.42064275351195,57.09456210139068,69.94788645966084,57.29633473339041,37.63046243560143,37.639745507827506,34.94497720141156,25.825193065747364,35.46732494134612,45.32255115517998,34.635262544316426,31.76608927757416,40.91889971384786,34.138627410773054,27.390092284983485,39.058037087209215,37.95390932293719,18.79812024967358,11.65539918668221,7.206223084277322,-3.979754105366875,9.422922991943569,42.695120187541185,56.72289805397227,58.694513820943605,64.15256632856335,49.92235662363161,21.85388811291871,16.257712998693865,23.8771204704268,25.623672643375834,38.42148830483922,50.985547220353304,30.149970966182526,-0.9350311740025887,-9.340332283340597,-12.096273011673363,-12.350536973277325,9.020171592473654,27.91421195648873,22.189028364581226,19.361590318337015,23.60817057589762,8.814383110602307,-8.789016302044764,-8.91999123545628,-15.062479687398747,-27.725245064270837,-19.600404680302066,-6.8657352066578206,-11.701571000582057,-12.425517972089592,-7.26627279630886,-22.11527222838908,-41.07718112950018,-42.891281504895346,-49.955460332693605,-63.315781769766325,-57.659167510893596,-51.215565554247526,-64.42247619623194,-71.19876839013943,-66.44135261653449,-73.44264870929838,-76.74948911092454,-60.17962063610026,-52.261951701155915,-58.163162178291145,-51.392205910850564,-45.12448458448184,-57.06964953720589,-59.95536301750731,-49.19895565430045,-53.610024138528004,-60.715341609407425,-49.46520637853335,-44.01296567923784,-50.003651594280875,-42.81800233804275,-38.374628872548406,-56.11562841008227,-66.3691357749076,-60.69900070076544,-65.85033203702363,-71.0943464885608,-59.6284937761377,-54.53955517263164,-55.68793967992967,-37.878688281809374,-20.854482661041004,-27.238934316530194,-31.96488471829099,-29.084033008609158,-40.506341422003814,-49.35628971733291,-37.24596183420137,-28.753845705814275,-26.82524135269459,-9.671013246018465,2.1521032361585,-9.184546110226377,-9.981998105511266,9.334726532611516,21.313049933926386,32.313874385985294,49.880956995191326,46.173221055796425,28.12845973882005,31.056054882925213,40.044444858640354,34.30875423921884,38.673800427580346,54.81985461301615,57.08636532998918,58.43855960993455,67.18657164240136,54.849217456506054,32.99919977494377,40.813164022178796,63.37986568028584,75.38767709940521,88.86156176493276,96.380534997009,81.32592492279943,73.10753189896354,87.31250075573543,88.75495349429899,72.35306896423047,65.48120763188409,57.11221619164734,36.73410549155494,31.728292707752555,38.66082870066012,30.271858707894225,25.274177207525817,37.555100513740086,34.57692657433801,17.420199053656383,20.12948110801337,31.224323923678007,33.631909980494896,46.74795845776279,60.20066108017398,45.49953022926496,28.79225938210009,35.93853072115646,41.37242362318048,39.62319804304552,48.9326744033207,49.698377425413845,33.75774172524748,37.735459928458276,61.505669492082944,70.62920586043418,74.15886003884533,86.05337425823464,81.61066001291623,64.6311073854629,65.06763465012355,65.93718313176734,48.64521710462951,42.330172480869216,49.98736214712905,41.40554603526562,28.625547558567654,29.410194811895472,19.087946903628158,-3.009465648808413,-9.124500265583261,-13.527142739987834,-33.17897382756927,-42.119094230102895,-39.2024831571399,-50.80519333159852,-61.582926059034946,-55.102122439281786,-57.626008415933896,-70.56595811687151,-68.24753781327703,-65.93137734692667,-79.73700597792335,-83.95291320716322,-78.32577855767347,-89.48381578606761,-101.58168862390207,-95.63422475633217,-95.51899917079247,-103.98842327011698,-97.78534130774469,-93.10051339397869,-106.0102121198523,-108.05666287156912,-94.97326377262402,-94.27317504904426,-97.09643630219215,-92.26594206509387,-104.82887642411244,-128.93219802703217,-130.59052653080275,-122.11085185426947,-122.88132637945336,-111.01963366732687,-86.09529071550557,-72.97597293586719,-59.13923689479198,-35.73387338337808,-33.70023748293828,-49.33542291937896,-45.35138999986385,-29.183410254897694,-19.153301126047083,-0.6428329717230552,15.55477364062227,3.2337936983892313,-12.728296895967418,-10.00107015827318,-14.681849884602821,-27.456606832244695,-20.924906614142056,-10.303502314965986,-13.507235761322054,-8.850997091092708,-0.5696101825253579,-11.757254044460682,-16.25461741393595,5.479606633385773,19.913995648937846,18.757179599875997,24.14888907214508,23.0706688666051,9.525825385520875,12.833975111871661,23.356171337668997,9.999760175045969,-3.9733845949694317,6.382943985917994,22.815754067169898,45.54976489716606,83.15920168483517,101.20820563136755,85.20297453512296,73.93486165462797,76.98505875475661,72.02543890690677,68.65044501964478,69.31891633119115,45.27760050655253,9.827013718864528,1.4628111344776529,6.1611544638263895,5.177822589719565,17.97176199522076,34.4761472528554,26.863143941084633,18.831851105437543,29.697601131778445,31.919292188488022,26.829339430374716,40.323625172188585,52.379542585298395,44.93894023311554,43.11386490814089,45.52306308764864,29.70581444672088,17.754465828443635,26.204322247721628,25.133668015650116,10.272335611515913,5.382689717513612,-2.673614568404082,-24.02856196248194,-29.581045343952766,-19.74264073608284,-22.279930988610456,-24.370564157205685,-13.629965598627539,-17.573574919610905,-34.74017030052312,-35.3728545082852,-32.33496603828011,-41.518207298366306,-37.75405931683392,-21.652849228149698,-21.65890575454389,-24.619133235381412,-15.050047004400666,-18.148228558573543,-32.386381602607294,-29.3839796846546,-23.415204345374065,-30.46174128290189,-26.191047105293002,-12.754622476774895,-17.877286759546607,-28.516990402360314,-31.47689886229368,-49.141416670516264,-72.88676225028449,-71.55902345396626,-59.80472589533973,-53.483939771089325,-31.084968029407005,0.6091893182545416,14.555083360923389,27.968241046251972,52.71236063984776,59.02714067525687,49.139180574855246,51.81972193619401,53.42849591841859,42.24820820265766,43.549220019696406,50.767882083613216,37.7608083768671,27.072013499407692,35.655332977533845,34.38734695650021,23.539456610446067,28.388254585014895,34.09374740991669,33.728188644809634,53.69771602388146,78.98623984586092,75.00714740159842,61.335685327097536,59.058804350787895,51.682310356311596,47.723129044559,64.64173358432556,72.77495202442344,57.400025755796605,49.67642943024811,49.526617439022345,37.46534128449178,35.6354032169778,51.9656259196459,53.6797855924858,44.97019534962278,52.84820149076716,60.74265630600801,58.839058807066166,72.04883683509415,88.19930258746301,79.12788943533829,69.10057604272778,74.42379359112493,66.6042469902629,47.80610306126982,40.94203792259198,28.20515608669692,4.041290287720176,0.24462532896795142,9.356255544454072,2.901506641470182,-0.018640312907663353,12.193773484528613,10.64080663329958,-0.447561582536558,3.8183763667417683,4.311594896688746,-9.568280461130248,-8.460018733738439,2.66525632949064,-3.4719029177309717,-9.027156283753907,-1.3119400680439819,-7.777113647856959,-24.47630214155804,-23.537021746096926,-20.947328229119243,-30.83718895850637,-26.85786654244317,-12.186233252448986,-14.827449296880701,-18.0226380174832,-6.33648964553786,-7.040042065230509,-18.99117146749145,-15.608720988656724,-14.114999848020478,-29.26771392449273,-33.07095134858351,-26.46891010868067,-35.039333297358816,-41.11424363694337,-30.733832457802208,-31.276213178560738,-41.918533114807445,-39.52189752387186,-41.337301455884116,-57.547915719570845,-59.008439646659966,-48.12202480368023,-51.16981399292996,-53.23869575267658,-42.90429648201786,-46.18235835321066,-59.61211992827619,-58.70512630630354,-61.156058112646996,-78.15873494086965,-80.02206658360052,-68.4158412345088,-69.69903600401473,-68.94602751389016,-55.930587460975886,-56.445111988656016,-61.642219673477854,-42.3646383061008,-18.575761392385843,-8.81238982231368,7.018130906788004,20.400544952206943,8.980830524583753,-0.9906392643795263,6.008130920969481,0.7823912823208543,-12.913360991438822,-8.207009243940682,0.1157708209199253,5.53623605839735,32.912319964514445,64.86260748832387,67.9307119667389,62.90742369468042,66.02739956757465,55.077318477215755,38.83292718549387,37.74017465368318,26.891755487437386,-0.426124389145091,-9.587063363867502,-6.953561432682221,-19.82191879067583,-26.900588949347668,-15.562506804631967,-12.671272547037455,-11.87457513702817,5.408798409479064,9.630421540690445,-10.136295750088351,-18.61406117311711,-17.363126344005387,-27.747603194943427,-27.375907299801366,-8.024986467957866,1.6503520712572262,8.562338182218381,29.875681840495936,36.93604356685529,21.80684919305976,19.19671520826738,25.076000504601566,16.46214465788675,12.586064716886845,16.964419324420216,1.2809922090200034,-16.6481569204479,-3.556492823159113,19.14849809754705,32.98560430043037,52.220914542958916,59.08925573281134,32.493543332450784,7.766565309954055,6.071571058414409,-0.0011338048212894414,-9.40142488819184,-4.649984293699421,-7.96605868079254,-24.561392141449257,-23.05385004295893,-11.093316563583409,-12.518859297132453,-5.9489372262325855,15.633664157036877,19.75917684718518,10.870684617046535,14.20339854569341,13.364697933286548,1.1917604316835133,3.509248183371737,9.618946158956193,-6.8865474113261955,-23.628830979815877,-24.295594509552352,-33.741204304127166,-48.636437668425266,-46.62191185289913,-46.85847242920351,-59.69915995562096,-56.60301948866142,-42.13565878243374,-42.294238897597,-40.029848901899335,-25.15160816109642,-24.641545467900887,-32.84138553376943,-26.733286332918063,-27.49037577234673,-44.6309206391904,-45.94803173558315,-32.83088326706273,-29.452991462078742,-20.98964273440354,-3.655937796297187,-7.85224651376752,-24.6090701295574,-25.137285398463675,-27.43625132197134,-43.76687467218745,-49.41924082108213,-49.59264578365969,-62.70976293064611,-63.20541240641056,-39.41357503665676,-21.45071250377576,-8.868379057948982,14.770781669677923,25.88336165894601,17.6283263474062,21.757049787889297,33.65033224406385,32.21712803369382,38.4912498774164,56.99278638615995,57.251811508409986,50.44668162019674,61.71340618635516,67.64749778192164,58.859524175033776,61.40961600559358,63.862445686466984,46.9651452784383,40.298506324258014,52.41815804024928,49.96990790407608,38.44333552817512,38.84323803121739,30.3530059858591,11.681384545264399,14.427550723343742,26.322128615722892,20.886569502805607,16.92256674405658,20.08426393014794,7.441262768761996,-3.8306875604368114,10.04796865034235,22.57066962758976,21.981527126132185,32.12225224056627,41.39986990258186,31.25399123807597,28.880307086406436,39.67197427172821,32.31983373858503,17.67001442339013,19.831151612633796,17.527289367669674,6.280726742836762,13.60794638811535,24.0434432298498,11.595673885751062,1.4307510714129936,5.726744136454805,1.6252872704147863,2.4375649412611793,27.472889999159918,45.423973212121,41.77860054338419,41.62860205724978,37.065008818883,12.322740303795735,-2.983638977825386,0.32059745415238794,-8.99412982166485,-24.54774640041971,-23.31407837353689,-25.527788201978574,-38.18018538668066,-33.81067572013948,-22.491526682151203,-28.119461992552704,-28.21777616200073,-13.561377067985266,-14.213292730248043,-25.400161335752713,-24.047026154985144,-29.1916283236558,-47.665877904325036,-48.84199411576693,-37.332906965131684,-36.14211791566631,-27.59366719800547,-8.529269880002198,-11.786725912285547,-30.3124069900489,-35.311450039583136,-39.827772247557235,-50.08161393056355,-42.769633555279334,-30.958741904324317,-40.091913357862815,-47.09865143613231,-38.0605037426434,-38.826440532945405,-45.904815128081324,-39.91864302684158,-40.70595930066048,-52.960989472822746,-44.191692146771366,-21.344706835881972,-14.745348578556385,-11.705500978642831,-5.571997684885057,-20.08722388756776,-39.95516678097043,-37.16235940300024,-35.19054127464443,-47.042943321599985,-46.14428926433797,-38.29508770631822,-41.59510719016037,-33.62996934753708,-13.37089557255481,-14.468692821774646,-25.526411042025398,-17.2656635552255,-6.921587692725077,-3.2492892668696176,14.261047049195108,30.00922382049914,23.587837175849188,23.530164600252053,38.98365338099672,40.090999569718,35.79344646465374,49.503108140790175,59.06467247018826,55.618726512540555,64.26955336142535,73.79062242558624,65.60815892059053,67.32890679060388,82.87935502112758,77.56310137309153,60.650223145066036,56.45155780869331,45.28900313786687,27.089034320689628,32.867635926350076,47.651352240035685,46.68684832082959,51.99114432865791,62.74294312324333,47.4214687018053,24.109236309775792,18.892445508985656,7.626249403905139,-10.846738173425356,-3.457805451123967,16.307220033369493,23.524814893382214,37.79450183091548,56.51944716069015,49.27783220739653,35.53038396752379,41.61201693191249,41.88526351143814,29.36211529597572,31.38785716968891,35.94030051551698,22.059665794524868,12.684372492604252,12.392917642104944,-4.371763418833075,-20.33947401046024,-9.702672362308506,2.1769636513640713,1.9857534098960476,9.574271982784222,11.294196943043234,-9.233467703038384,-20.70012114206304,-13.115042064029264,-15.71106876987582,-21.207046456982464,-10.546691190732622,-7.303026676344254,-17.993669009131317,-15.841562190177758,-11.518075940008242,-25.5021267295267,-32.476648326340054,-23.611578136868623,-28.18030914328595,-40.33682955618989,-38.56940950877373,-42.15305790401802,-56.92411701622446,-54.67621417552462,-43.81095944991142,-49.58159364894907,-53.66274950419751,-46.543087147530876,-53.24577219873007,-65.03093103798633,-58.183664217743484,-53.89991829005637,-62.41101906147368,-55.700445670769575,-39.60684956346502,-37.57992304312076,-31.78024924298229,-16.314707217776096,-18.969537832825075,-31.075599880185276,-28.127934315098308,-28.37515124853799,-39.45996558028328,-35.62976701479415,-26.424918843308596,-35.835941811014365,-43.817689413439965,-41.18261202901578,-52.07143464664865,-66.19577000919689,-62.49331242708995,-64.7732280460217,-82.34130262309058,-87.71500784298057,-88.28310598710853,-104.50574915743962,-111.68412563418596,-98.34318379110492,-89.15082277203022,-74.80516346524306,-39.2833998378627,-15.539919295476228,-16.17109694631469,-11.003510845559507,-3.7077809167583897,-8.715264527201715,-1.3954449735036873,18.36015527645108,18.04920472381201,9.403586904756509,15.450046086343251,15.428826097397177,7.63657686296516,20.05808625135213,38.14437747153548,39.328431218614384,46.00445757530912,60.844883231786014,56.75573304730533,48.09240440135105,54.26253386542906,50.89491508505008,37.334800069211305,42.15285256579953,50.079635049268546,40.83804878856263,41.515355543760066,59.33106023396579,67.4255110492318,73.80496966017269,89.76168987437434,86.85175164057597,67.71166183321051,69.01475750653599,79.49272326292896,76.38612581354246,82.7953948725266,102.23167408269232,106.32856446244486,105.48209204242023,115.06742565381431,110.41307209843387,94.47649003709799,99.39297396572954,109.0214988692396,99.80936133434284,97.9965035603414,110.06888908669094,107.55730281027564,100.29297290122224,105.20339361268942,98.81844756389367,82.87208277427682,88.21924047746353,97.8901363073223,85.31637148980047,74.70285160761881,75.99831878978414,64.47103242140443,50.234765536598516,51.41102574227172,44.11126295029252,24.50545112083214,21.647099533911323,25.06534908868475,13.456733694274003,8.906292124346525,15.79848057144286,4.654861448931043,-15.24857533888304,-20.472382971955582,-28.999315826687493,-45.385321179011,-44.957015894440566,-41.31306813464799,-57.306733603559636,-66.60059415478486,-54.442758812886105,-46.111141966080375,-39.34271711505847,-20.629557572495116,-16.108113860321943,-33.258909386427895,-40.16769120735695,-39.55901093294041,-51.604166133897664,-56.99964965396941,-49.857104062844954,-56.622770154448766,-68.57154461735665,-66.85949585502418,-73.84447336266088,-91.6510146819181,-87.84147769504617,-70.16143995137196,-62.00035260585736,-49.4043739466563,-35.24395542702546,-45.31490212496596,-60.31596499994349,-53.932642879504655,-48.162790630557794,-50.24214273110567,-36.40375505863378,-18.871596076799186,-16.816451163096406,-9.428100126223736,3.391674125254662,-4.8769125767039885,-16.70791291061442,-7.850331240354642,-2.054349821777744,-8.496248788803744,-7.3326141083946705,-11.96137496234304,-33.05444399327581,-37.36957491066426,-19.41018820507144,-9.827323953223356,-2.921981247271456,12.956035262569966,12.037855831900824,-5.18012435761218,-8.325260657695022,-8.122691459909415,-20.466435037221153,-21.45719326400671,-12.960199900896948,-23.062080784499283,-35.271547765338354,-30.43638579280287,-33.36986126782027,-44.75420302389962,-36.3097282442585,-19.637411255298005,-10.340353053167185,12.35261152662013,40.649853018007256,41.42054038812254,29.962199111340233,30.080387965653372,22.119037207574454,5.3199015805180085,6.000646499206872,12.280240146824166,9.260188182687749,19.494913903044395,37.510755032638116,31.18265552419043,16.579502947942252,19.75439502167703,21.669803489070972,16.28513656364089,21.36095337652313,21.04484091961689,5.37419442929782,8.292426322633348,33.73928413174764,46.9117761193894,49.83817192633162,58.53696993731588,56.88033287921458,46.23577341027581,48.957758337289576,48.383347204918685,25.43933753054542,6.893004947409457,3.139035740064759,-9.917336377407503,-25.87228250392362,-28.756017404337694,-38.69257223399833,-58.17976459029116,-60.72424575190292,-56.52584235045934,-65.31181765086235,-65.18471099464169,-50.224406113704084,-48.071097883265296,-53.444087770077665,-50.12383742683807,-58.49482912831094,-79.37794839942688,-82.2860853738985,-75.39647724640386,-80.16582541411876,-78.61755800691706,-66.99847363607313,-67.81080426028373,-67.60345527169167,-50.36057502445755,-44.131521156675404,-57.005406230241086,-62.359409517547085,-64.62589784201121,-75.30600371342437,-71.37118979562909,-52.83492925314764,-49.27281881462223,-51.42410015114864,-40.74580886195279,-39.13405294925416,-51.0877599526441,-51.958706451923256,-51.914300436608734,-64.09330533859512,-61.34894612928102,-42.249163734694164,-37.25036940837979,-34.11496345329491,-11.087906629787467,9.760734031437142,21.19162176404574,39.61665662359279,44.56650383956007,22.315495462331768,8.731644947365604,13.145648999156112,8.419779464656166,3.1771893238497686,11.198797740390802,10.067465124385278,0.2326253010974657,3.90755468528707,4.048197208520982,-11.83127064611295,-11.40339857008449,10.550331311781063,24.369635704941384,34.18158168570527,47.368029020932326,39.32236137906884,16.67687941879625,10.117169669858491,6.0880520589511455,-9.038597914894304,-6.242687512389244,19.08950652711014,38.853214405347046,52.366440409519825,61.985507282708355,49.32086853098644,31.62262617608241,44.29206364760243,67.49875992013796,69.26593964298998,62.2209835650267,53.412411532128765,34.733499306513416,27.660540321991427,40.69043580652044,40.764911907843626,26.632442123242942,29.204366078348286,38.0847607467777,33.64910061366507,33.56585653247965,37.86685020065472,25.37509884293517,13.559050932557515,20.97468821044791,23.071250279559383,14.289203631846727,18.603276821592388,24.198039092117767,12.662599561645663,6.744349993947994,11.659432561873803,1.7610181597483918,-11.67448411823883,-7.195337243039949,-5.8318690172875,-13.819993866624355,-6.836000195791576,3.030101254449438,-4.3074123801505,-4.159348687821027,13.784035129193333,24.797497084433438,31.785033164464835,45.333069511204314,41.04987081337165,15.127932798680632,-0.9933717432928735,-7.0777339533197345,-19.0648731118123,-21.384868397092596,-9.678940771023077,-4.646054619323587,2.257630299264096,24.876615603685938,36.83672756868303,24.59876437153005,10.925072204392732,-0.2933054345275221,-13.259584289036374,-7.2311350739296305,14.392185120808216,16.810339407748604,1.995853729231464,-6.251758900604147,-13.870311652887104,-19.016395831775295,-4.34198146971417,9.180296070403372,-1.7543401511979715,-14.181220766181703,-16.067541460908,-22.281905666035307,-19.82142420888671,2.3416601035483406,15.582875773473837,14.551699619853025,25.779277093268416,38.997689318215414,34.51020203340804,31.212049217114107,30.476968910676835,8.98669835439997,-14.236343314193224,-14.12135257032893,-13.53174591588416,-21.337067260113173,-13.881619905418498,0.7063517112914122,5.813616314032229,20.600445244961097,44.68354209592635,52.031803880544814,57.490990150896934,81.64322829707187,101.57049420981765,109.38284569047408,118.89519483332228,112.16744696618308,80.34813179641671,51.63129407237669,27.59559985225564,41.01806263077955,25.095130856194753,60.5193577253584,39.298775311037716,-8.186122976279659,10.224912498157813,13.051953477612654,-34.28452354019457,-21.89330363824607,20.45073923655031,-1.6839573767963572,-9.642814704111457,30.291419801331536,10.950970285465129,-34.07591146330661,-10.97285588281232,-4.173733880618652,-52.25133313501659,-46.81297663426896,-16.379073093249087,-49.35542129847312,-59.971895148369455,-14.609683440150674,-24.293981215191046,-56.834568262838204,-20.91486080100369,-4.068069832097378,-45.77196566262689,-39.775803095895164,-14.62117034274081,-53.295309063645135,-66.49069432805076,-20.881031457696174,-29.09656181247913,-63.432608080481934,-35.58576714558794,-29.033947345386395,-76.46094317125647,-67.80731458644956,-32.11229846736181,-57.2683504945606,-59.862853843218446,-7.48575144460208,-9.345987809771023,-36.55513230709862,-5.016874970027178,-4.809747131152104,-67.80428943712913,-69.28434892564917,-22.887630783945056,-18.104926181835452,9.60436384956918,69.61057463364011,45.748963502448476,-14.053748853270541,1.1804906604044447,11.81298910075375,-28.395421781969542,-23.74533127785577,-4.925475402260139,-49.486524358726925,-63.52787331282824,-11.461090129296222,-2.737076978256437,-11.291450887796339,40.00845054718148,56.93193478751407,4.109003225526404,-4.077691213723916,14.051041053593615,-19.549511239937097,-23.513395812837608,24.083186423362676,9.975342682142374,-30.97534339339405,-7.1082028178452745,-1.8236591536126394,-45.261135639346435,-25.702850438695762,24.29565121850282,11.29285864854209,13.803802276402488,60.19156551591792,43.44491395036812,2.485083353991554,30.783536540932065,42.82412286691661,1.968725443789733,12.975101463429358,43.15418694946681,5.490977678150376,-15.596931399213638,12.871165519547677,-14.936752522754512,-67.70060180319157,-57.859784711914955,-65.10755380639193,-119.41492773548232,-114.03529393308582,-78.80676955970051,-102.31989022507939,-107.39761568705512,-62.38346571571879,-69.33743902191738,-97.76820105555282,-63.09488536730687,-45.282646176855664,-76.87108604344824,-56.52036251257462,-14.452719209754443,-38.30981879142173,-54.65208530906382,-29.267136374455355,-51.47741837839341,-84.0457253108812,-48.460418612306555,-33.401972603329625,-77.60458541855297,-80.71900668120354,-59.84089385707831,-83.71895075555837,-77.66443953886319,-24.119264566111596,-29.244725632197905,-61.96428368370633,-35.25536213214454,-21.674692935751256,-51.061253710845016,-29.535603926959116,9.94401233311708,-6.8556384914034965,3.935083159420719,65.1122734559459,68.67729886151304,41.83489143337042,63.03691652729638,59.32811227704731,16.293703250920725,35.712355971632554,73.71875650099936,46.71601964829692,39.03279201579925,75.08202676690473,55.078878235547606,20.9242740212113,50.95630050965597,57.54081286375765,19.20197120873151,38.050372030348846,69.21236438644897,32.92809461093384,21.32873724457371,60.36315860294996,46.112347220579146,16.911894783564257,48.6710158749554,52.25136286892594,8.817095932391545,27.244232607345538,65.95043945215177,40.571563186843825,36.07426174513805,74.07067403188317,50.72717869982129,9.21432346783059,31.587843363548096,30.470105901399776,-17.498083694206173,-8.106858161265638,18.877458198910382,-17.222619640250226,-29.120497013536387,10.765722664575058,2.462459976947059,-16.941042858582588,27.107240741943038,42.07655857943048,-3.7422702131294123,-8.082378981173292,0.4894919174841821,-49.387257944990026,-69.77038667905236,-36.06692005751779,-57.0830012662842,-103.46661141300378,-91.73183823302428,-95.28782601764212,-135.07939638895502,-108.41222290076078,-51.61659096419456,-54.12625218783964,-43.482951362443245,7.997509900466255,4.479168053259366,-18.437900027363803,20.83706997545002,41.78702989608522,13.364658206681565,32.01442158528427,66.572670134845,41.983995353019964,37.9987701017983,77.73969493662561,64.37876153868204,35.96538424330148,70.03245893330646,84.85412549515083,53.01750470947178,67.51338070151512,93.70067561818999,62.378706193518966,58.562101159111656,102.5721713952342,90.9642964208316,56.374000264642305,73.34004143265477,62.41318605535176,6.8868129988638,8.082757442241293,27.269220210471893,-9.664185221403041,-18.61312116616994,16.03599735457361,-6.868990010004442,-41.486050125209125,-11.530210442795001,-6.604216041289406,-46.939831438385845,-34.44375119047773,-13.88703058474377,-52.05594936132794,-53.440935383900836,-7.211297731405519,-24.597622893310174,-62.976051405154536,-48.4074553051641,-66.68139572012089,-121.66060243072235,-102.88618642351112,-59.472224110061674,-70.93295031560517,-53.27276368003814,0.5432561607260133,-13.648190629425455,-43.74413373612388,-12.946969108542575,-12.644494095049586,-58.36280150536154,-45.85061309477216,-17.439659708713766,-42.33138217788556,-29.78643318489335,30.937175250429938,31.363115749826406,12.349813222845992,46.42722096089268,48.001477518664274,5.760955237943131,23.23508562362089,55.402461170082574,26.322067845364998,22.907018961892483,65.33195370763626,56.21503620509866,36.83724006932403,77.61484143502197,88.67566486153095,47.09548661679474,52.769780935244164,71.71466239014339,34.844419543030064,26.079831948653162,62.35248576820661,42.49501095344808,5.458126384550871,27.372706783707272,27.141226549151433,-14.541739369193106,-1.543964679289802,24.43867392377547,-8.974817613550925,-16.067397584790324,19.64059725245698,-3.4550607733564895,-42.6314757911638,-21.158345756699923,-23.909129356255974,-69.57293170884037,-59.01698023835368,-34.63114489800651,-68.42145250511564,-70.21351785247131,-20.748901498923598,-24.592573527324863,-46.57024285667811,-16.74894573879192,-18.343794464610415,-59.89385638910051,-34.92062961783056,9.782425792391917,-11.899043902603683,-24.218221215578772,-7.636966713224359,-45.362995216311184,-79.5829266702693,-39.201389686191106,-23.548300675091312,-57.97577969174165,-43.21262592193595,-17.912291471079477,-49.291085841638775,-49.74523094793325,-5.795940199431634,-15.3045268723173,-30.972763579023518,15.333883653679393,28.18119989430561,-10.836183407122508,2.6574681009569776,32.36622963551,10.509194202220094,20.61672795188692,71.10657499796778,61.493033072870254,39.63130955287133,76.50717903191304,81.33977319940402,37.629585528006075,43.77353019087106,57.748931837703175,15.582605324076576,6.087789527525677,37.905770875674854,11.530747105858358,-23.74882798749566,2.73579918281969,2.6970516074094837,-37.750956451464994,-23.434707091563787,-1.7721642701925848,-38.249364291162706,-40.85874679863303,1.5587609883210476,-12.980303765487191,-38.67356440419199,-6.485425059987181,-4.333038213924283,-41.55689812772706,-19.514058583080963,10.581858691652123,-22.22449022816953,-27.795492407092492,7.131622966802887,-13.216763914803197,-37.97905241805858,0.15548416820717037,6.695413746582144,-33.61819951834593,-22.85806755007405,-7.111304405065702,-50.592440248276816,-59.51081023241731,-22.34147254155466,-41.52145704807997,-71.92477095365926,-42.233330947401214,-33.93699912079611,-53.19548841902151,-5.1416409947437,50.30180899082773,31.046692897940588,24.134889896270337,52.379850847074025,29.249456955764064,5.247724769063357,42.141939853868635,42.711961605757836,-4.6764897695404635,5.057929476297062,29.793884717089572,2.1819993104987248,9.245508107444383,57.724630517386124,46.0592522195849,22.788527875167134,55.557769131901324,54.305352312206914,11.100253537660713,25.660118967300285,48.105577972154926,11.84428035910328,8.013751927572367,45.39741241325619,25.45472075561665,-2.2479802397932023,27.474795709391927,24.31030192065259,-17.684097477737467,0.4321788053378235,26.155867404851566,-7.1828651935874035,-7.968755635589391,30.917164581809466,11.57241200780491,-14.409715409122262,14.388745268463614,2.7010912287746525,-51.59885756474659,-40.492424214656104,-11.187703152679786,-30.658771206695537,-14.716287659496897,31.18561319853987,6.113666361276767,-26.003976958495137,8.964251854244221,16.834726818385278,-16.00378589520836,1.000405144356586,13.919590835110846,-32.643071088694384,-36.03774963441554,11.14931964538264,5.541287765753938,-7.595775915613519,29.931656809548386,26.865741146652162,-15.987035020453398,3.4658490144560723,32.84577563904252,6.302644239395509,10.876153865408025,48.30334956607101,25.452608253306597,1.3619156041136433,38.25619357513886,40.384598215888076,2.347912361650426,21.455796537035745,44.78958872736078,11.61760118857719,13.520738458551307,49.643225347469624,22.2446704333792,-8.954499272121504,20.720904468624497,16.622867789190472,-24.78133522535888,-6.975108643819585,12.851803604699281,-26.05923812910539,-26.66989090478995,13.7549548059377,-4.802261755645281,-27.319448471439024,8.496223954204506,7.366864201995456,-33.5972756617719,-15.277331501488817,5.7884864841738946,-32.35240084483383,-30.562166593032423,16.975983188620162,9.458485235658513,-2.3154864135227147,38.26327115631523,33.7405625501852,-14.730871028859282,-3.2800352806350244,14.594791299654288,-22.094185164414363,-19.873737714622596,19.341708085813714,-4.5251554539006555,-32.820990499016006,-0.8434026933477234,-0.6897446217758212,-32.29388714985034,-0.5765438011317094,31.103716293632257,-2.913091734058572,-8.265017406241427,19.70857619924402,-9.087047546179202,-31.767048803791326,10.995020843939056,18.27278828817977,-17.870707947027523,-4.019425916312359,7.934400628817193,-32.099963772654036,-26.207964123574314,21.09655046450253,7.622720652553486,-11.589826582821749,22.889905838697302,19.284677986845324,-19.323492653461475,0.06683408375411126,14.253393541009801,-33.185747370812386,-40.16795400664585,-2.5150846692854643,-12.547303941693865,-13.245817161845938,41.67194819089156,45.0118486585053,-2.2579717925487195,5.670224168638287,24.387627072058567,5.645291353815379,38.046860749446566,99.89552044958356,81.77754370943688,45.528173267796106,59.49327346775567,38.32053384839754,-12.318222400212212,-1.786421073540252,6.700494298507625,-39.481959969135985,-40.8783496510654,-3.9582817344548094,-29.18323163300956,-56.2838106964998,-25.15854109341103,-29.317525865332566,-67.06783755530496,-48.34179550384771,-35.287925665349405,-77.41225628371247,-71.23745722193397,-21.971246020496594,-33.254881053409235,-50.937311264467404,-19.263276719102258,-27.584045835054994,-63.37036501981001,-31.667229507477728,-1.8265842251435638,-35.792594077753236,-37.942959289943346,-8.53300447289211,-35.27377081176626,-53.1172686125075,-10.413207051381308,-9.612161197609716,-48.90871990089434,-31.230190559493543,-11.833973050309456,-42.35392287892178,-31.03039606113913,10.775474023702865,-12.324557912216209,-35.529410923148475,0.23547298850383314,1.1099922648166647,-31.624825833898537,-9.094850435527723,8.06646921472601,-29.325629900496224,-22.806415022267142,19.810553658193086,1.3910654292064084,-17.77777649862093,15.909421108154389,9.643633899817049,-25.713333671369448,2.752166728150012,27.606370100227238,-7.410225684158313,-5.1323057286971085,31.310195763173027,12.851373250160494,1.92927284933989,43.915391740657654,36.43349128497094,-11.043088534798082,1.754252992541364,17.091990235186643,-18.72428120347465,-14.878160554395034,19.55506603464597,-3.5861468513916854,-17.290887242559293,27.352275537483813,29.677255109256762,-2.173213238893794,25.898780247030544,51.59169234844203,22.681784724413955,28.817820982797926,58.43559162529665,29.82534486747417,16.77983056952059,65.84930484471145,70.505555093885,32.47100870845485,43.795485721011,50.21367757425621,8.760469928589808,11.75407145840807,45.82757718893474,23.644265836487307,14.188852547205125,65.66003297221673,72.98757395106605,34.921347471001894,42.824759222813235,46.53249652269382,8.417753447847815,21.998461715411693,65.98232218084704,42.60454095456535,19.98469911047047,53.62631374344775,48.46951665746873,11.701021407322216,28.940578892824835,32.77485099560286,-19.869172451689323,-25.015338775967336,7.243140707701151,-15.40873458929436,-26.618946995352047,20.72506333320561,24.643338232720517,-7.765101942510006,14.400959630241498,29.570022645172937,-5.070361596732731,9.241854019973017,55.02845803135749,31.26348734863207,1.1256314475290772,21.518261944669092,4.4825005462473175,-37.54104810033884,-17.263500078708073,-4.876065066917491,-51.523253448843704,-56.8523030464077,-26.091347051404473,-51.47626618943305,-73.1288399119357,-42.24356906631451,-52.24386548255509,-91.34663883304714,-66.4323183120687,-40.874478519424756,-68.25564346054998,-57.37379282889369,-16.85303907331224,-34.70039150663709,-48.04662520892248,-9.814545400491912,-17.284187253408344,-62.82365603362424,-50.259934966549494,-30.671391992994728,-52.414222849031546,-30.461298355466795,20.059274364177128,3.3182310585522874,-19.61840025557369,14.801458101839907,22.543793634227924,1.0181888963663237,29.008835662941124,45.84349553373798,0.8957495206983523,-11.873195393785384,12.268775037185604,-10.127871067406709,-27.768361410618333,6.659497271437047,6.3069118099037205,-26.02753148720516,-4.689643001534387,18.473642877040515,-4.981044167407427,7.843019440446633,45.739862439767585,19.48527946952364,-11.646960058584686,8.936350109069418,-2.4586917798860846,-42.607045747216304,-28.750668001021452,-17.378950171256154,-55.05336439412596,-51.257039521708236,-11.602213911244684,-25.39950727391674,-39.474330026224145,-4.156933421556644,-4.08715749498111,-32.97597331528707,-6.745116493400708,16.65324171083237,-12.495351176904245,-6.714599405691953,28.470565754040734,7.886268099940164,-10.765067469890656,22.473392353038964,21.455680833130643,-6.086005940688647,24.68270582241778,52.27570333340712,22.67899695987046,21.307092447061404,44.686631668441656,13.289734229512504,-12.396300417209432,15.920926049067774,10.384217944535523,-23.109618644519657,0.2835007363994517,24.493656532184325,0.144693006669252,11.650838243419889,51.64792235636746,34.4036461072614,14.406567723529598,40.00077284619308,29.66316591220518,-4.563194631795815,22.82496917347717,53.01428099413853,31.49942884461496,35.27398583923621,58.247551625060176,26.784747543621265,0.859722616674846,24.770650392174378,13.578790643614491,-26.902706865429174,-18.754756435410037,-16.12456613261731,-59.32783133905055,-64.68762539177324,-42.304120080491856,-70.06998353896478,-90.71385419132727,-65.76056304598012,-82.09990941465996,-127.27458217685712,-119.80158896985728,-112.12384117197823,-133.44617767169845,-96.79337452576128,-29.45701326234396,-21.56685122838017,-14.761015877774073,27.630449303770543,24.788345665599643,4.805207598027311,43.444106093632215,68.06470713185169,45.81343790680216,67.7700972100005,110.72947375539933,100.73591416457089,108.392996110762,161.6266059790493,165.68443508050706,138.85348983108358,151.73543061742856,141.43013910962816,89.1858537804471,84.84096020221975,100.32312784285884,61.136751082632415,31.38601798822659,42.02986588776577,18.326846010040697,-16.181720783443623,-2.930431507745979,-8.03239319315944,-52.987166394229604,-56.585899419377405,-40.316099132027546,-67.29329691468489,-83.09224692007069,-70.17836455937481,-100.45649253462072,-145.80676330220234,-144.5279295785907,-150.27191426904034,-178.392778823729,-159.4258788016731,-123.06429713195541,-128.2550991820785,-118.43744666415958,-73.62530901776898,-56.30033698733481,-37.47503549747388,29.46529017651638,76.71632986901517,83.26328662250386,114.60263155375159,142.98939913685354,120.9935213379913,112.6748572380284,135.01533696656213,121.04790486905216,94.92129381667633,99.38588047701933,75.97317100132403,22.56665828720064,16.761049901010985,32.545874008154186,10.618884237995239,-8.828601488384155,-19.225337661146263,-73.7480179246325,-130.27443178811697,-132.75808081932522,-133.91686625887326,-150.47242158803627,-126.86267963044594,-90.04287705491672,-85.69689732210121,-65.82392122503359,-21.22641684043863,-10.239842552312478,-8.861400158104313,25.67649433533258,42.28745508394605,25.796589287524817,32.37984040664677,45.32600527013656,29.327588071771494,33.133025922853754,64.90883345930666,66.15292070819171,57.55857144829812,83.92119041691873,108.15543918241084,121.76506751673043,162.57678873447222,190.264197220167,164.0022918391406,140.27349106894064,142.87199012014207,130.47571350002585,117.83018385626497,120.30261008003146,86.05994632244892,24.252154045372468,4.912155083863919,12.425637114293636,3.977856975414178,5.52526303061152,12.00266611203171,-18.328792678280816,-49.342134276054395,-41.499775650553445,-36.503017093731394,-41.70399789460034,-16.669035550486484,12.4654343064444,16.74919991197679,37.864181963755286,78.36563030625429,95.41450687731367,107.13385794828501,131.0332513570668,126.15638576763713,99.9406896869574,99.44591212108796,102.31776459772728,81.98280173632364,70.49334457366494,62.89726500655822,25.681055904581576,-11.925058552144076,-30.533754631459068,-73.97871409760344,-143.4420321959304,-201.48093553069685,-266.0619258223609,-345.91240557988203,-393.0630953635304,-406.960222622421,-425.1620466940734,-425.46442956100896,-390.271826305335,-362.24218357543504,-347.5616021448211,-319.8311553348114,-308.27950593878916,-329.1016051856835,-331.10936322096484,-298.8091781109383,-259.0640337430118,-196.27386052413914,-107.49064891723617,-42.669428422695034,-3.5214243330117725,48.98978593288823,94.42930021638512,105.98694783163755,108.15025454950637,97.53264894250333,52.244261430568514,10.346736801536744,-0.0694504681845971,-12.638820999880863,-28.571998053117717,-16.39970585479977,3.7490985302762363,11.20069222158862,32.5701603814089,61.273512023780874,60.57734351073282,45.32180818528272,33.64186043858997,-1.2307921460402458,-48.743157816690406,-64.67000751620112,-61.709734767244825,-62.821818986531696,-45.33434150960363,-15.080050643608597,-5.864883955220884,-3.6550734809391074,4.810764912907194,-8.826840871092795,-34.42724937400622,-32.54538191910541,-14.421763791114973,8.409681897387802,65.08449530632072,145.86571149974054,208.87874103316943,259.03003250694593,305.82527664113553,326.8247556233339,337.09246878601846,369.03061146207756,393.05513060390706,380.4567814452484,363.088029082901,353.97434129874796,334.48677664893404,321.989486260876,327.5403452890539,318.06496903040704,292.6807844246157,282.5661039764257,277.51077773942086,267.3374321524743,281.81105156970875,314.8464609673937,324.73568304182754,312.6513149476074,291.6021255290341,248.07342899918166,199.79265421943543,180.50186048015908,170.0838946367161,146.31367702345705,132.13204157305222,127.73617308568203,109.95525812190432,95.6155608306672,95.35724424617287,73.84052054305221,25.494186372714957,-17.250910876562482,-55.058273625158904,-93.17319543529878,-107.05025868761223,-107.47371203671884,-129.27963041369745,-152.74764543514894,-152.04466012170494,-150.27881065717008,-153.1922475501213,-144.94090972274486,-146.76981752002217,-166.69298334481576,-168.69377444012542,-153.2462898436959,-147.80996340324958,-133.76158308191788,-99.23272445455784,-78.98453067082478,-77.67000075709491,-71.59986493590938,-71.28999210806364,-77.97742422748992,-62.24364163194808,-38.59795876397564,-45.882412199472896,-69.04407804846798,-82.4923749197638,-96.04268542664494,-103.82040477805927,-91.49754769256126,-85.70008425385691,-102.54427934738183,-114.11448805914382,-117.87273189439571,-135.57222508149883,-150.20839512838612,-146.52683466361054,-148.52717172412218,-156.3948697798861,-149.92586332350356,-147.04917793595703,-157.84960549811274,-154.65658717848262,-142.04667595293944,-146.36524398692583,-151.15964519828884,-142.40683900432796,-141.3702489740641,-143.47450359338305,-130.29632033187787,-123.67324378305362,-132.2736380513273,-121.41566132893237,-84.84814972615439,-43.136131544346895,9.516249756130552,63.74307569240658,78.17140871098411,54.818628999039014,29.537590987043888,2.865811590774042,-25.673755496070022,-31.971916966502494,-28.0254721155251,-43.16870542550425,-61.97184740598158,-71.23303900974902,-88.2840730625485,-100.8681420392671,-86.51069002841325,-69.12202302662251,-66.60920559515819,-60.523766790108716,-56.35610290614028,-69.18040139264525,-74.02578203441436,-59.54816580256915,-50.78543446575485,-43.02303296793091,-19.78020913086818,-5.780116356966961,-12.661936152320761,-13.570015035378768,-9.236280130818379,-18.245403784253316,-22.634397755479476,-6.568336780272286,19.424084131437514,68.45074084217421,152.96391524888926,228.4032054520491,251.93240450378488,231.08916704749618,171.28181529429975,76.96660717153694,-10.346331037089044,-66.32008585998176,-107.30773257837964,-127.3538986276329,-115.00318730911007,-103.08088834219615,-112.09039888181076,-119.87046401968361,-124.15490096177454,-136.2463563298952,-135.48794903125966,-116.60986516388462,-109.03803222271131,-109.553972548313,-96.62276916372281,-88.61420036974931,-97.2674255858931,-99.12398304844075,-96.23371545126557,-105.92072656805519,-109.42405549337332,-95.86523312518459,-87.75936286809768,-82.50671360954445,-61.70342112196391,-43.30308856585338,-40.64044407225121,-34.16478461615277,-27.574259575607286,-38.40287332541811,-45.30290560423863,-32.43603896100983,-22.0059186407097,-17.27652547366622,-6.032123435785023,-6.057368076243553,-21.930409150009652,-24.197150873796513,-14.935049450738694,-18.332871514444395,-20.70729361883486,-6.424685398696224,11.665177959327243,39.022074104362424,86.86964290955467,128.05113374720094,144.7118516312333,157.1949000322577,164.84079156111554,150.60543081061064,132.9133366450152,126.4576454782625,114.57083621015025,103.10277286665664,109.36748005410352,114.27722683693082,107.86360268955934,112.362272741598,121.401694328469,113.3390622098446,105.24010642039971,109.0164859603614,104.45942516386735,94.78322713782103,95.69872373498747,90.19540062072093,73.78351691148443,72.30511778291593,79.28122706688107,71.24004960763412,63.38131494022127,68.27954840318273,69.98018645915148,75.64148063349383,98.3974076529066,109.73253920288792,93.61558077137792,77.35370134406905,66.92933906080064,49.7620444678516,43.37636449553309,53.333886553148716,53.97766121145162,50.489422326844206,62.963622344458116,71.93157954981652,65.01575580313647,62.61188859442018,59.20667947314236,39.230628697065896,26.50800305152473,32.709195998081086,33.8880922302573,35.3132713010126,54.99391219528926,67.4034177662104,58.9993175618842,57.710698976808075,61.70340910969358,52.03409259068371,51.518687851869025,69.86137567006796,73.95137945807744,62.37669222348441,59.31478458445116,53.92125433038422,40.55407797206903,40.29538137937374,40.232978904857966,17.38220773577616,-3.374632207575368,-5.45982623258914,-11.411330319312057,-19.02900566396149,-12.227573005754458,-9.163191849459293,-14.18792930346129,-2.1996499183809637,15.893252311559207,16.041110189258415,17.749050115821433,29.271246318413258,22.67966927209463,4.12986398944108,0.3667811580567657,-0.6193230898456321,-5.465299926702764,6.721749001197628,21.524476404720485,11.825351388226043,-0.3991905303534642,1.7691115966742514,-2.250675593544372,-6.846826778286589,3.5232828215370207,2.3318477080689886,-19.447670298682894,-27.636704551484566,-18.23091157500499,-9.25534980680025,9.357849407123773,30.64741247174426,22.020873100355246,-3.8607774841413773,-14.243207468311153,-18.91313665412,-23.478477672490815,-8.911735302662828,8.932448832717522,6.008262192588762,2.8718646956647094,9.869852417930833,6.496994467767108,1.1696267236679199,7.50831069207115,-0.9190667407494679,-29.82275099256684,-45.6532226920243,-47.41486205812771,-53.6205404748445,-51.51388280761696,-41.443450693309515,-48.46533851216194,-59.50880841939439,-52.22307609924518,-48.71432001440248,-57.365095762425696,-52.74746924556233,-40.7252357795778,-38.20784995791938,-28.719404850662727,-15.943183881657848,-28.562735012222177,-50.83037939353852,-56.387774286366266,-64.11740739534993,-79.07333116548325,-77.65924385183362,-74.36383366361738,-87.2751251616287,-86.8278866761543,-65.90325463487369,-56.40381012648401,-54.62284745983958,-46.72918131966168,-55.271324821331035,-74.09874431857794,-64.30124753509135,-38.59124970155156,-28.18855473926473,-18.070452113687423,-5.103924299691107,-12.317510860565806,-21.222429125680257,-9.254178038880669,-3.3263075476218975,-9.912663825208854,0.3096492417517611,14.945307377156075,9.853458023526484,7.7142159327887825,15.556464933693807,6.520293681502621,-7.366888571526282,-1.913851931855179,1.6354486642122583,-4.4992417844864985,4.351203337052331,14.427718393151787,0.7601401697063057,-13.141611067631201,-14.602755977385387,-26.49268297413412,-38.9666262145341,-31.295895575852473,-28.193183244188756,-42.42156770408421,-49.1326427225998,-52.6356807711304,-67.89506695586782,-69.28760536358386,-49.56072974181049,-40.75014124469745,-40.500553934596034,-28.860327234633363,-24.989891141666092,-35.083822845614336,-32.015676121214014,-22.881755624847933,-27.892879844884753,-27.213038176005135,-15.992778926523982,-20.19015930314234,-27.308846531190337,-13.575194961814931,-1.876408277256762,-3.0009105509134564,10.455431306825114,35.4771747804714,53.199162744254444,78.89201457629703,105.70087465097848,95.5511076810614,62.054520164441115,39.39728958967592,14.569313158957305,-13.788617813329935,-17.128440988620543,-4.288132182465789,7.550184205434048,35.44001089377291,70.43946496343324,77.8152284383046,68.81077358667572,67.31627153699343,55.917475700613366,32.52762557848005,26.892092917474393,33.969248486153944,35.70250605807997,47.225480657458974,61.439136062083165,45.95523009113194,17.508334164337327,6.1393055564987264,-6.444334397015151,-29.68281046438811,-43.2274608285714,-55.33894600047567,-75.56283425759057,-75.16999210649448,-51.35198082450927,-36.22005700684649,-24.719282797031923,-0.5719083160816485,14.032310887402145,14.126530643396311,23.37018360859128,28.642718695526874,12.212182971927229,3.351128583751716,12.854631380191064,13.711632116996606,10.883907213750206,17.460276369070773,9.653909195123585,-11.016382598036234,-9.941303707605908,2.921501312911909,-1.0435651316900945,-8.950955511362222,-14.624188499824045,-32.448338722420864,-41.43159124509776,-23.313256923092183,-7.133800836489418,-2.360703625108529,13.50165619192445,29.344633436783866,27.28840108163927,26.863823242374224,32.57716603491208,26.040369139617397,23.406594356003655,41.01139479991192,50.39205884713493,41.7884451304822,40.91879071948414,43.22831117007765,35.72866776035476,39.62936058465044,55.31346381984906,53.66411220383071,40.3464635560518,31.809457840351364,11.543405621248272,-16.90914339607856,-23.585947763325706,-19.7662343007598,-25.872286245481835,-20.924663556452586,-5.204070610437936,-5.061026904935191,-2.0889196109706694,20.487749481654504,28.831125161363772,14.613497374068412,3.0041288261509234,-16.436029033683965,-48.588116490610474,-54.42709685912473,-33.60602148733757,-30.154678687872867,-41.506438748274824,-43.32236434009778,-47.34092098513968,-49.38876494713637,-29.959537259407337,-20.037400298223282,-44.928256509000455,-64.98716013202878,-55.89090650671692,-38.062503188453896,-13.717318450252776,16.61028589973378,34.578423892788,52.84933010463336,86.1517775171717,106.91769020758966,102.78766430113461,90.65210171482462,73.37606731390342,57.17178551825996,47.00490461541711,17.138208363688186,-34.8204440515475,-65.8270943090009,-64.84860799012014,-59.98699425266669,-55.95233333813945,-52.67651268018752,-67.50668146166113,-83.44656981968791,-69.82745273380355,-51.4228517463823,-56.28777717427797,-61.40899201859404,-59.39421721391059,-70.09129532471769,-77.92249111821644,-68.47503931213886,-66.36589332344,-69.0688729199286,-49.19129204100231,-24.50569605381763,-20.466025894150555,-21.314040586178415,-23.683077427438253,-42.469119082209374,-57.26065682739837,-51.36019726865767,-48.84691338618329,-49.61821663428593,-26.201401896637293,4.867603552674687,12.451917985947649,5.258249793351933,-10.384408381668596,-35.16035611140562,-35.41554675183285,0.8576227636523779,26.330528203376616,19.933969168895068,12.457765506883284,15.9974620280005,28.138922682203773,58.518731333760826,80.99287837229915,56.95628965178004,19.337764167100556,17.149188605608494,33.5680460185284,43.99432488803281,47.40637238913198,26.704808626580515,-10.454777431723523,-12.868645556451856,23.708412856703138,52.70933458275918,66.81682916158994,82.32259394391681,87.80955514247631,85.30011144711538,90.630828787245,80.52584059918169,42.3309448174321,16.00949763540624,15.002285684886566,12.239115117102134,8.484273341391102,6.035894779263218,-18.162431009563086,-47.15961435073676,-42.69955837016644,-24.80448908212523,-22.696973742973466,-21.966561982192125,-26.63425065124498,-53.53394019956607,-70.09550196386124,-55.94470833120714,-46.113232076480124,-45.24675738584975,-28.088397160116635,-15.603357204036037,-25.94814226598265,-31.751093276888714,-32.97965383899062,-51.0655939936792,-62.25380318265957,-49.13716136458776,-40.50831225846939,-39.45832235879182,-24.683688479519624,-11.901851993221156,-11.200675298062363,2.951295318071147,24.677396641770084,23.7864967542941,12.10019713436299,5.8389071713077465,-11.475938276353263,-30.434764773993813,-25.603809476856462,-18.297603219367755,-25.234138322610338,-18.388804142618824,3.367126082731442,14.370729106825882,26.88173501902172,52.63195123005129,68.64735470297958,78.17024489983778,102.39112995454461,118.79176463348459,107.0073345574404,91.89738615783403,82.50678422770949,64.65187017643292,54.646104566082755,63.61816628821813,63.82222799895095,53.706389446693436,60.02123037937329,69.38377318605276,61.48452930370853,54.524356032823114,47.591809664639605,18.877332163968195,-7.991943889146956,-7.528924698709755,-6.484686505998891,-17.720109247913747,-24.315530707634046,-38.128448890224156,-63.47310413010643,-61.54047875981503,-28.14606142952311,-5.389448282490608,0.686528805644255,3.8209028783633223,-5.8061153717598835,-12.778897312280796,9.937458005936339,33.83462304746747,30.506034698014027,27.10333355309299,37.4458180255947,42.56532872476354,44.23162782711118,41.468813050532304,16.0168111258859,-8.050200884592876,7.689815292038647,39.41974053610493,48.5440231217967,41.4256872494903,25.4662313118723,1.1806473210338675,0.11752562922790766,34.83783476848006,68.84767584292739,92.50115893547441,123.8946797441622,143.80736605311043,138.35388819956677,133.63490794428037,127.10834903074803,93.83923413615832,49.89789222096573,11.239489359861889,-33.14714576562287,-63.4954042795041,-55.25809117130892,-38.70491091105874,-41.1627441249795,-47.5761067136541,-54.94388188800942,-65.57801343078054,-52.20767143569681,-16.05729358135378,-2.1331964289505683,-17.4453359944072,-35.761748238636756,-60.018781306743314,-88.9496256830666,-95.218877406997,-85.00724397288454,-82.51632279176657,-70.19155109341672,-38.715391439019626,-22.30658032235109,-23.110933625550565,-9.879497235730106,8.02948738749002,15.700401787508032,33.908521922187724,55.137259902301885,49.787563787568445,36.001295049485684,34.84171769839081,29.125703594551865,27.64816467950598,53.33784588101025,74.16650609881955,56.8570902873012,23.6254652045575,-5.275849955856746,-25.80589911166427,-13.67845935377263,27.62680222922893,45.96018180324072,26.808625780620833,2.819626220702556,-18.816240268654226,-36.46778992238895,-25.6729526163401,1.8609327757372345,8.122699294432344,-1.7297666130900704,-13.348032377911991,-39.547256013768326,-67.57922923803675,-71.83784153292676,-73.12168579684773,-90.36257987943355,-99.7630329466024,-98.26553564906412,-106.5663871307533,-111.49533129528537,-102.20279730296579,-101.45462668508878,-103.8366146634871,-82.76378678547988,-57.29654599572666,-49.78258557900145,-39.20764141675531,-22.929541381721354,-23.05885904135627,-27.744690107353225,-24.06764966667248,-29.83893814823478,-36.131915251094355,-16.540195565671524,7.3200545418679015,9.729626672025685,8.18369438531976,6.681535879730853,-3.1936857133829015,4.5253266858474825,32.8406177861109,37.98327212004684,17.843928896862366,7.546932854911076,4.378457734941634,5.587258262139873,34.112412726379304,67.92150614450468,66.81566414565934,52.41467673684364,50.286600440699644,40.86432597581836,28.73881471283155,38.00876753784322,47.09933599262621,38.547603794802875,38.806656772948735,47.57197075100282,41.23876031050087,37.61939963664295,49.486669107759624,47.72540412485318,30.410273642417017,21.45351377617134,10.358325757253153,-7.625049968084728,-4.649334300926303,11.725484766760484,10.479894641732809,5.0449102161037125,9.176621844262884,1.8200933959334282,-8.637441917403336,0.3052264952366519,1.8024792265877103,-20.77526641365143,-35.28415076928797,-35.234180015002664,-37.07033397449249,-26.48946304650348,-5.450010162155279,-8.471310166599014,-26.857513604876107,-24.815364312500158,-12.621554298574221,-7.080119764771257,5.895887225672414,14.870717144330062,-2.530403040654444,-21.761357432698574,-27.717852096674548,-47.21748221136327,-74.44468310534684,-80.1046318958162,-77.80404853717505,-78.46644964525184,-60.10884393232995,-34.62868658123048,-28.95850087994185,-20.768691774727586,5.0707867601750145,21.519915649350516,28.947594507466206,46.07822836192007,54.01158386363524,46.62687040375949,54.61033046937524,75.81126776865689,89.6532082445916,114.2720253034644,153.14893499647604,166.43712601912296,146.53684058009858,117.91720111519957,79.32032537362133,41.609889273148056,43.22097495607722,73.09509563492284,87.85696931510046,92.87124911176838,102.9390001218191,100.53168031042743,93.24036574231089,103.2981608717316,107.26104517058273,85.50156424310339,63.767668329867554,47.850141183553966,18.017577202658806,-12.676503835761476,-33.717535705955,-70.43317881039631,-120.6402918270429,-155.69490212891915,-182.52390320278744,-206.97472963005646,-202.44695789671823,-174.53011419578075,-155.95204471232046,-142.70008723758286,-128.57770497319837,-134.71426153017,-151.69351038126308,-152.93564579706614,-155.7421749414791,-174.14705341846985,-181.92709293783423,-176.4800025089871,-176.82680672166788,-168.36277954078378,-143.95406718897814,-131.0074551563436,-127.72315782888947,-111.22780492544027,-96.68752522042797,-95.56707580407311,-85.39776663232098,-72.44854795427129,-79.25103932017518,-83.03862077117472,-66.63059835382961,-54.62796279062431,-47.896791550467526,-30.977085063369273,-24.406599240973243,-32.94809278257537,-23.79237505126434,-2.2656894849522544,1.1634318074147008,-2.2430199752343674,-0.624625405827052,-9.567029217865803,-16.108534905329808,1.1937645667458998,19.823748932215675,26.35324263296647,42.90976037339045,62.930636000345686,63.29907041399031,60.442216292043454,66.76136626008912,63.84335907962354,59.97469096153033,72.21054386801435,73.37458178892037,50.13131148492995,33.3523420401463,27.37106451572253,18.385338704051904,26.835179694934798,56.408036380978,73.46598590145592,77.9386882255623,86.97901064139646,80.07642140630763,54.550576507696306,45.63763129556082,52.31232033417646,53.07017603144196,60.98221575243987,74.77942851363525,65.71801411508586,46.25066685112995,42.97953775629826,37.934391226081445,22.867265267450712,20.575764053868795,21.12655367493355,4.7854507844184155,-7.9115570188226805,-11.288263834389035,-28.182890053565476,-41.8520809920543,-25.58171733257815,-1.8190646564513555,16.228160289348924,48.62348940246618,80.89530554097692,87.4037911950717,86.63858767756585,84.15016524257922,56.908719925679854,25.093020911010157,21.636882275223503,26.060688402851383,23.53676297853135,39.020799916449576,69.11425555140872,92.70465854222192,122.0775013151345,150.01387944766898,137.99735050765386,98.51150779782708,72.61334896295145,54.21206786591925,34.47939179666865,33.328199144309316,40.43561633587697,34.92496091873843,39.22929978972195,61.770971352209976,69.87987271214891,62.993620699578685,63.48755872071813,55.239598023719566,28.47670441908233,9.530811300791022,-3.2976856421946694,-29.34054905942225,-50.75704538116811,-60.59296797119937,-84.18753687017525,-111.23638331708968,-115.27073930433306,-114.0091549601089,-120.57066058523,-117.03537820657237,-112.76253197404047,-125.25564099244261,-132.58244373421223,-128.27745484837737,-138.7639305282685,-153.63024145410415,-146.04796850794946,-132.4663480997201,-123.17902077324797,-97.62240493825789,-65.89003826677705,-48.95919851055009,-28.45308720589312,-1.1930020328447961,4.405885281773384,-0.701723626409211,12.365426128760456,29.469411869684414,39.940171222526395,58.58873941593984,68.21480771137512,48.1491234650876,29.25716503991221,31.387155432201652,32.85504823504977,37.7387561685398,59.9692896988729,72.7220668871145,67.82486549155678,75.07884327586532,87.8470164072877,84.22324763622171,84.23145645875461,94.92269354757676,93.13518161265067,91.55623555320872,109.28385815068236,121.18582148702556,119.12884936132754,126.08315625405778,131.54603880963134,121.23803490929119,120.64461720093425,133.09289730242565,129.82091305000492,118.623966693235,115.40995748173037,96.2454668706615,59.85518570476096,38.54156576005666,25.505785698636167,4.809378498211503,0.33852338449067576,11.52902268727047,5.362298020456928,-7.624170377631294,-4.268026797094009,-5.208654887241285,-15.761132496310436,-12.779969966875656,-13.072597515174433,-37.60921914857889,-57.85467624396998,-62.13535717180044,-72.5859638504659,-78.41608260388321,-66.91941586867425,-69.0403900387027,-91.41565799024688,-102.57188170930928,-105.39938912789535,-111.79827803779779,-95.21817865732413,-51.8968182904924,-13.31390685633444,23.965928505767007,69.94766194133636,91.63313613874945,79.67939579706045,67.28897099878836,55.807396360356876,33.04412985737234,24.4013253760787,39.64427569636518,55.921228710493224,78.60170077138741,113.54479801631749,121.38898014838125,87.82248218074977,50.92937288744869,25.79255004019953,7.7848466565538015,13.37515973290932,31.25310857195579,24.05361017766991,5.957796847219642,8.495196427629722,13.622975592981655,8.839229028081835,13.467788500251759,17.26878416363582,2.8180792130465138,-6.27927660831646,-5.044345223911378,-24.155303014393347,-56.50503452387083,-77.01154435877083,-100.04720850130104,-128.90365610732948,-137.29999214843087,-135.49207064027874,-147.40894015893397,-155.5993316530624,-153.63412035344334,-164.84624217183656,-177.73278206304485,-170.4012156874213,-164.72483304541112,-170.390237313633,-162.7398056191926,-148.5058885552793,-145.86762075450173,-132.82693161028791,-102.46406670235525,-82.51069593317547,-68.52656445581647,-43.767043426897715,-28.985868289668353,-29.507097679810652,-19.87557191922501,-7.3774253627110165,-8.02487627465828,0.29955685688059797,20.77759486814641,24.106174369771317,17.069943944230033,19.436794719410212,14.94013072081047,4.863599179052864,16.156795632334205,34.4956402856509,37.14898838407229,45.39596759796992,63.570009203131306,63.98527206372101,55.64078441643428,58.42119992577145,53.89583027190873,41.23346374885966,47.81377542850777,64.01604519219056,72.33732914767435,92.99100507785101,123.33489148056194,129.18452252397077,116.09124467191292,103.60985196400398,77.91420128443526,45.11901356994581,32.729569528243914,24.363544111689066,1.3960269799811265,-10.12198277499024,-7.394407764706292,-17.019096327547988,-26.686301380271665,-21.263828171270696,-24.542981208054567,-34.608773183079734,-25.059863734733618,-15.028052836375007,-26.006566804002468,-32.790682744091576,-30.321117211422084,-41.813491595363885,-52.63494015711301,-47.132706850081654,-53.476988713957255,-75.37879228312225,-81.81283385824158,-78.90043614443664,-80.49324041090813,-64.16216563814137,-33.755632456943665,-21.40448044766578,-15.689832783297746,3.7763441651676493,16.323915581799938,18.81517568194804,33.497486639741716,44.61631277484985,35.41178793598561,31.82731241078845,36.6260235195182,27.93954878340304,30.32730969621099,68.22274348800495,109.45414481927881,132.86620191168146,146.25110687918382,131.5422851677207,84.43973302861619,49.35039152150618,39.37983642347694,22.379851205788636,-0.2258387616437867,-12.191280862541882,-30.349815904394113,-52.460889442323854,-51.200946474731296,-40.51924013667802,-43.04726162206079,-39.870323857766884,-29.485258885435407,-38.76370503913778,-56.18874412224191,-60.877111484650044,-71.1062710443247,-89.05809148507113,-91.26390607214597,-91.55702966010233,-108.91903090198869,-119.4196477010956,-117.2312942721752,-129.05228714623752,-147.16602636763278,-153.4785679472679,-166.07786651989204,-185.2824443359359,-184.31353657555854,-172.33810183999518,-163.65576419697823,-134.0347859131542,-84.65810999289344,-51.340254266226545,-31.674638749716514,-6.616735651450824,13.752687936882781,34.42688442628068,71.49944058413071,95.52888541518848,82.20183029767148,65.66688530751047,68.28531648668888,74.76351179247897,88.76846659486998,110.30318703521544,109.22822775849095,89.9216210732205,86.36780714892193,89.94953127679753,86.80910380841215,103.02302413342204,138.7329844137377,162.28225569556503,178.35096076042427,195.7122556504125,189.00547647910065,162.37525826900858,146.8274545126303,129.52418084499536,94.64870318017833,70.75075275528121,64.37756636350733,52.39096792911802,45.19189640590196,49.521183928247154,33.883381257804146,0.31968225411633355,-17.556590143289917,-26.455574123575325,-35.69978846365883,-22.873775310917324,0.28274858085695875,1.1088796480313374,-4.283490388013041,1.8002914164666235,-2.7392681213761816,-15.646622303857114,-14.105213808209797,-16.30299035985501,-36.20382296332898,-46.629040082362735,-47.05942432349563,-60.27796673965821,-67.95230063437698,-54.157041543584874,-43.98902274639345,-40.068326717804055,-25.497414769902754,-22.356583166898865,-45.56474271789212,-63.71543494257022,-64.3159882749112,-58.32032133885734,-27.631261105412143,30.13657515639132,72.4637549036536,88.68754559497879,104.12927499420618,112.65833043785412,106.02418975048072,105.48090895102835,103.34279210670891,76.07346417257219,53.36954394756509,67.71526941772271,97.51232557201234,125.93537591614125,152.45022343788054,146.14315936810377,96.96864180015228,53.099439245565655,39.0194341957353,35.198915184800825,40.877161301424906,53.08261442439495,41.71872056329974,13.275721552297401,4.211474245835024,7.358275648397421,2.8230628148050148,2.43457234841517,0.2130946589455645,-24.10353994263812,-49.138222373979985,-56.156508225333795,-69.35914425314175,-91.93463537741201,-101.37525969093312,-110.14197278325626,-130.62033225284895,-137.97386937955386,-132.37155184913513,-140.13798947067778,-148.20918064035263,-139.79033612994718,-137.61989551421075,-144.00754565556812,-136.44654195854523,-128.94499867011794,-135.77684263967984,-131.66660109470314,-112.47768497369343,-98.61287159145537,-76.92720044053817,-38.222305558444646,-13.598116258004804,-10.0194791070132,-4.582816853332277,-4.974915823778754,-15.978779439965281,-7.012288401618527,20.830270256151074,36.46988034398773,47.28151442090464,63.12313395281903,60.22307706559961,44.821782263080365,46.616319177225705,51.2188789016986,41.693900301529204,39.78358613426647,45.305708106272576,38.053540551071265,34.930906501780285,46.6611116335563,46.100534160132945,36.02985227930998,43.86340189921156,56.9614329578115,63.40518250264134,85.83566296967327,118.69643026938749,136.6925341362216,151.89172618513032,167.90639169950677,155.56770275274846,122.91359978093205,102.85703056902474,85.95583775408743,60.00902840867312,45.05673861779379,35.94127999481577,11.09383526294084,-10.062921934816469,-15.328502238155401,-32.2604906128853,-56.139916177123446,-57.68443260592655,-51.89098176071733,-53.82589858251059,-43.743723066099435,-31.711122911460684,-41.81487108802461,-49.329110138607874,-38.545381186036465,-38.68144085779338,-49.856336240434864,-50.77595824471456,-60.59426867376488,-87.28998113546233,-96.41767915663166,-87.37725618822495,-87.49626548370685,-85.26209328853481,-73.75344963573839,-80.84648488514222,-97.87152662147723,-89.39006601710345,-64.75867028323577,-38.543921239118134,4.883640354585921,49.52206753515185,62.264522102011554,60.014577958817576,61.336582808617266,47.52572393466998,25.067832709732876,17.869501818203204,11.034085869968834,-0.7129867149023168,14.7437235334922,52.48273686240701,76.26304215358729,87.20896966081825,88.2572396535952,57.842256913888846,13.917857040723788,-5.148976116929386,-10.938198029373947,-20.449092808604778,-17.749620800308165,-11.204667216820742,-23.161718446113113,-32.90467337833987,-23.582809835292544,-17.73980384276251,-16.33608156138703,-3.1568488362466645,0.3108621126735907,-20.09518992088891,-38.45833770646087,-53.458763218442535,-84.5710654131845,-113.08719854891338,-123.73828303744685,-139.00293677948306,-156.87729913398988,-153.6772729605584,-142.57224811371378,-134.33252284882417,-106.6398212127649,-68.70243011559995,-53.62283611604065,-50.263944341774724,-40.78620711728383,-38.70561849797091,-34.039178913413174,-6.525738710208657,16.91112053092517,17.069575306686122,19.736730696976167,27.149452118525925,21.981223707799813,23.16371085815316,38.24566218601313,37.43211167141929,25.503187675715132,30.072422559637754,35.42662708306392,28.46695681315436,32.47046819363434,43.2981929323334,41.359952486751595,50.14282047584423,83.0318574794293,110.10645871465286,128.0928008310023,152.34080156368222,159.67523611750053,140.31256471830102,125.52803332235965,116.09735391546857,94.28626240632406,81.79870395809527,86.73505234920196,79.22720160638322,64.37820848498842,65.51809303567823,62.558152695187914,43.86752199303024,34.125147849636136,27.50543082216887,3.700772824270307,-14.711038356546572,-16.190727871869097,-27.493579426987463,-43.58149495481055,-42.309854136219556,-43.336257719472904,-55.184342153975976,-50.91979007661223,-38.45911656461453,-39.7188616855385,-32.719117372733464,-10.224712885038983,-3.635309081550025,-10.6615057656782,-12.179684453989932,-26.680628242432732,-55.206253605395844,-64.08814385234066,-59.70255598368762,-67.47183513322545,-69.65813966540104,-56.10722043736784,-49.904234242502056,-45.11064737366529,-27.346796536603932,-25.13281174738821,-47.61889619868707,-58.73693198353555,-54.320867157247974,-51.048108975042254,-29.156784264740722,14.078754134265884,43.19540779984328,59.25955688378284,82.07021056589832,89.86957434153193,74.43330478891745,67.28577195865623,65.55957040862519,46.240167932412675,32.88900645387581,46.76714857588078,67.6770507343664,91.4801140195039,120.85883061640946,120.15967808700537,77.68999448422969,37.66450310486592,21.18981009481848,16.384912675239164,28.54307337446029,48.59906710037773,43.78426802910993,23.871929888280206,20.039540490665203,20.1353650008418,11.578531849176368,11.294229363694434,10.799571283635014,-8.139406104612757,-23.937108718108387,-27.38671554313205,-45.86273870333579,-74.3840856310269,-87.64590206638567,-99.42514917313503,-117.83007786350001,-119.3801339231358,-112.40830590520862,-121.58400859375253,-128.52993845376358,-121.23412357246215,-125.3604070532473,-137.9520686136077,-136.43619734380457,-136.34431179547133,-145.44464934378092,-137.1053352831771,-114.77516321185641,-98.92718218730693,-71.77251207153778,-26.812744062759425,4.470336218121329,19.619720194103675,36.72822050484892,41.614613943443906,32.86556906709076,39.963276016036026,56.00204327509199,56.28685701954805,55.08295103898506,56.27411108991518,34.26659765992723,0.7787601464574916,-14.823706190813652,-21.97840713722334,-23.876142165661022,-1.0321852941928569,27.997731978096486,34.184070080593656,37.20646402166989,51.654955526366194,57.40348994242943,60.810572478829066,78.58088087214135,86.58164534188616,74.12492640189937,68.04546045232607,64.91656369814774,46.01791258745688,32.58855847387973,35.21620345424378,28.822766938556683,17.919211342110824,21.774484885456477,18.908067895306715,-0.6081291720875548,-7.070648430712245,-1.2022945400231286,-3.674860901836925,2.5895392591401225,22.118509890266314,23.62996098824276,12.283434205674919,12.932615985488829,8.036390191627234,-11.517661612893349,-19.12750673934446,-19.68934831750628,-33.355982592472564,-38.26457731186923,-25.18204866453096,-23.206897788563765,-29.160821490342826,-23.50759161093351,-25.935342989786026,-40.82075505917335,-37.26503002681434,-23.382601782423137,-25.677098816601653,-25.739465535887284,-13.647024352528208,-11.656708210723918,-8.057690433999063,15.466176732834967,30.16518015153396,26.22952954452,33.72007487367553,47.43416648095214,47.72881279235182,54.5293613051731,72.12271666421205,75.30072912830788,76.76531542266005,95.58709740397325,103.21203602302178,88.32126220642334,77.73176802129746,66.98839797186994,43.91080032284815,34.762444026990195,41.36453003838325,31.015371319752422,12.10126841354928,6.297187644400301,-6.415489078025545,-28.56045446342065,-33.10548915046266,-34.907758544993484,-55.3460849230433,-66.94808170137766,-61.271736245180065,-63.91474610782764,-62.556585178929,-41.16287097353711,-30.244417016614005,-36.73208476484502,-30.248372177604367,-18.898087364559096,-20.414917212763115,-11.6391679172058,7.003863786875923,4.063424051026491,-6.1666648048377635,2.08914766093089,8.250430725680873,6.3804848015072295,19.314296847961135,30.623985293015494,19.60833607574917,13.359046507186088,19.81197760854169,13.882553551865485,9.091633127801913,26.14137699585654,40.79113994179477,44.61703580512711,57.8846856070112,64.20835702756987,43.943293039522494,24.66058432372668,18.78852945028001,5.470263859316367,-4.445359860739472,8.482196894409093,24.218251891894056,36.13055871772395,62.77175655454929,83.77900377953955,72.09610237394284,51.39685194038815,39.09235966895636,21.59055220801288,11.426054964499642,22.09735294823568,25.14006816120588,13.506232474501246,16.022137398314626,23.373907031938728,11.837798706395816,0.8257316365405813,-1.3449980447655012,-17.093718380975222,-35.721673336931794,-39.80206865024518,-54.863799934795516,-86.43549032382334,-101.91593266107488,-104.70655095711314,-115.35865197124241,-117.91241948617171,-110.80433135140719,-119.81631528107818,-131.15629639779397,-120.29835375811129,-108.2279076072698,-103.68717865388393,-83.97964255049719,-63.16435668080656,-65.88024189143992,-69.72367560706068,-61.563579169592444,-61.25262574125174,-59.26770825729472,-41.481074196927125,-37.25031789232858,-52.754203648018894,-49.49617015132703,-24.879985446526028,-2.4055348561677485,24.533032885525557,48.855917970313534,42.45243505277263,25.36857139890838,28.619021683832273,31.726085653599302,26.165422742522487,37.061111060088784,52.86376047919402,51.905143902130874,53.62799196471393,59.667909397390694,46.588505728241394,33.77090063910759,42.88763880565846,45.477010108013324,31.23142388919412,23.77391017660744,13.723265626138545,-11.329190195258896,-23.96929320265148,-21.757698278877424,-33.13204817615983,-45.37522827643106,-39.02204305096424,-36.80943970666142,-39.27869588667424,-18.30631186524493,9.968537455855998,19.88191242988305,28.799416556216613,36.97965580957111,20.87320017728046,2.2681011372706568,10.418582230850342,26.358467079629868,41.48615707304424,70.89302683240639,91.50627421256554,79.36908719541219,64.6155225743858,67.37429013626648,71.13047659873183,82.46059521196719,106.85273654508482,109.79485607648967,85.93343590866277,71.99865247931889,69.41043254677348,62.95993966877053,68.68974349335954,81.6437280883459,72.09549505019832,57.11309961882862,66.66265678406349,80.88488551782555,82.69356055487631,79.85414862018797,53.831378298539214,-2.4508287941531925,-42.09064062978889,-44.210632520198544,-41.74636708023795,-44.84555801593039,-47.32901080068167,-67.51700449741779,-97.943003580244,-104.70685388368194,-100.17825092313889,-111.01498862667253,-119.32276062982551,-117.46197153398245,-127.39040300457971,-137.74012018130847,-128.5185302743489,-121.62301235839988,-126.05528151392038,-120.38879657165856,-114.79918069646244,-125.73381480058859,-128.3251828857506,-114.81033974278088,-112.1580946696001,-115.679372042593,-107.99936419189791,-107.32561308085857,-116.87103409857663,-110.7277491328928,-97.95561782536352,-98.77506742425577,-93.37657872064153,-76.30137647707033,-72.5828593257019,-72.33085754295763,-57.27674677601022,-51.22708173272265,-61.1957047770162,-61.5233692711964,-58.7307059325726,-64.76756175790061,-53.83145680686801,-24.172849602161996,-6.519663045943485,4.689267621121937,23.943505782053148,30.52042359995049,25.570238777049862,38.85285189490477,61.32020002227659,72.58002318039581,87.86337586215714,104.69826279539433,98.60674513614407,87.88392525887681,98.097520847565,110.22328621814121,115.87606773193484,131.45220406745707,142.9228057318098,136.0976585827172,135.7362666752514,145.710460116979,140.41413692112462,129.32453526740102,128.7287586902171,118.29507732983015,98.2396109078939,94.14471768041155,93.0352796119794,79.44916469093316,78.93169463185409,93.37168600456441,95.38868539469307,95.83225520134098,108.66351191281629,108.3015473790185,95.56776732433333,101.98270711754478,115.24264244858526,111.82116217200897,109.51958932390579,108.84831743037458,87.34382412538318,65.53708267043751,63.8317749118023,52.015524514622996,21.830473975831044,5.751337474235711,5.949971408322836,13.977991874228994,46.98517970545846,87.71015880891855,92.30903840193359,72.39211115039957,60.36793998140848,48.654454056151756,38.86190660606238,49.391271717260004,58.534425986358414,47.69775889060881,46.69316945331378,61.63534541140039,61.42877210401345,49.23136483997121,38.183674537879554,10.323071545448427,-26.042265545331844,-37.23714006381721,-36.879630064262244,-51.978680305101875,-66.46625181169414,-74.74701545597716,-96.47147436105027,-117.43021057859534,-119.46687753931846,-125.98515584526933,-143.30216195343482,-146.7771517132989,-144.55393354487927,-152.99923973833486,-151.21585860656768,-136.3261559247875,-135.12326461771463,-144.82865037636512,-158.62587744627314,-188.34059957777902,-213.39526992273827,-209.57211580680115,-194.5228368155542,-178.5406633837608,-158.9354454856779,-152.40824617737846,-155.60415593954036,-144.0582647692792,-128.75107209215363,-124.43978118048003,-108.44490316290393,-76.66813062301411,-52.694035887781716,-30.280475424769698,-2.3366961558208104,3.8373978281494177,-13.800587247995002,-18.595080612691795,10.128033959255578,64.91884002394613,125.4057216753542,167.44542686290788,167.99293944002727,125.9850272022363,87.55951368057654,92.87049233453844,114.22917490330948,117.51048256440058,115.80870172879315,112.26872830813434,95.87693121626808,91.68919536536768,110.79086815988731,117.75625430732435,108.88146350428906,109.59055926603278,102.58462898163775,73.53045743623288,53.696542042398605,48.33347676045444,34.24404706446656,25.816413427061395,35.76205940778972,38.04861882295396,32.33839930636299,39.669702447811304,40.13319099702552,19.157690866262058,5.5943840261819595,1.2372606865623457,-18.822521106234515,-39.35798347932786,-44.88257637549998,-56.716446967115175,-67.51342691875665,-48.372710005632726,-18.61720746145179,-3.228442686843253,11.743685185930534,20.318386532637508,1.2141145485401719,-20.365684607857816,-21.345178318331364,-25.002870442179262,-31.39194521745956,-16.2703523717634,0.790203489964977,0.5844907569851538,6.055740790496145,16.081711934806403,9.477431285450505,6.773320982232145,22.72100388355199,29.130818976539814,23.900217453997538,32.645672957968536,44.93548483266219,47.49740704067213,61.02424294467761,79.95175612493152,72.78814119331746,51.117729918423166,36.41881305115674,14.856653879905158,-6.336024235623837,-0.8403338949459815,10.841213270357736,3.7976755925707857,-1.4714813817717505,0.6415735265106886,-6.8261928696441405,-5.989648355812886,14.864824565426293,23.024681299125053,11.30573658576368,4.7108346145971725,-4.285108531990819,-24.443889402202156,-31.352591531181364,-29.216323295644905,-48.46654375051763,-77.57747677645779,-96.96388940570665,-122.65564430931957,-150.66247000029932,-155.82562393724277,-153.05824077458863,-160.71793322974003,-158.8978921910907,-148.26558378484592,-153.35026771608298,-160.75760037184838,-154.45414519538804,-157.67653746195646,-172.37793926318452,-172.87664465235517,-169.10434047221537,-175.59168539917144,-171.54241823256493,-158.65672461178562,-160.973115241375,-161.34595666514525,-141.2508175688595,-126.08604293014321,-123.55343884314374,-113.37737482681258,-103.18127657733534,-97.02440895843013,-66.74011429476114,-18.235489222962208,11.405528226791416,26.5304419505932,42.89719903960632,47.8108791219458,53.94988101924097,87.85628673339336,124.31188387690861,136.62441309741774,145.2520289037078,153.53089905527008,145.1587252740786,142.326981124861,157.95964751964317,160.96318505231696,151.13317798782938,156.07258611837605,160.77529250758673,149.51159436595702,147.0570140170399,154.48304804828146,150.32808471251306,150.6708680625212,163.3490505929508,155.59557295701055,129.13730030914905,114.09496873013016,99.92822815203692,78.02305943937438,71.46887602347837,69.79231083681128,47.40340808083792,26.05541687321687,21.8725108939419,13.107805297906824,5.039064081228274,16.49298822523162,21.862350134025384,5.0248323424190495,-6.086506942702397,-10.748350505375328,-28.899216430736878,-39.77975034282214,-33.02927953464716,-38.370182128335614,-51.402453661997015,-46.693055231050415,-43.01916059002242,-52.86178354496651,-50.56652668771536,-39.81408185853463,-41.76852240311011,-35.60656725559975,-8.479078372272877,13.412796058632683,31.554092127327714,63.97375119149231,86.45989556752718,83.12739151281573,78.16088138338557,70.14658764798156,42.05003051383483,16.06839262414199,3.8689455665838666,-20.75783898072672,-51.92907091068618,-57.44770155200621,-43.33546539946838,-20.809688457492065,22.814240526081576,67.68152925780791,80.576869166702,82.80644419379968,98.41085807540178,105.15322241691746,96.09773855019874,87.29560501059193,67.6102513945666,35.88676835886461,25.349170804808782,33.13201061513715,24.45395823423589,7.229086628820257,0.22523748735138138,-12.740533734805432,-30.186032447017034,-33.27891654494679,-41.71633865174913,-69.98041958023492,-88.39988569558999,-90.4770908353549,-99.60616038236759,-107.57603277829156,-105.73947152645573,-116.49915053226454,-133.44419561413912,-128.95247219141152,-119.26346101487168,-123.36187314189704,-121.30776578722293,-113.12084614889486,-118.297483657384,-119.97199414131238,-106.3811837519824,-103.51739643906693,-110.14597656736535,-101.11060056030529,-91.77640291130795,-99.60635306864657,-102.57493906685377,-94.42185785329383,-85.06093476861457,-53.059936158454974,4.9523098472649565,44.330399611208975,50.38140982222422,47.19279551218209,36.351454307016596,22.831434703259514,32.612618811743246,51.30713538944712,45.756197193137254,32.482220068353584,31.297629866145595,25.323197802944,18.853048362157832,31.105487756152733,43.31823166676731,45.01175818321052,61.872783304434236,89.74727408753952,103.10749596834458,115.434457487027,137.0267103797892,142.83770639838926,135.32876308867347,137.79400098801295,134.47843480120693,115.00176880335273,107.70771030379377,112.08069607298185,103.86644561484401,97.59466899230917,103.02267692438662,93.82405584122019,75.14920920344822,73.48611553763506,71.86789859345984,55.98027004051595,49.08664373495376,46.00982919793969,22.635941988878926,-2.4300068881249413,-15.86047209416901,-39.46495491841897,-64.4629135778692,-66.90663523322104,-66.82737707506811,-77.64731723262643,-75.29053359450523,-62.69344932933353,-60.837117922465055,-52.948494293869466,-31.551227594489387,-24.98277631920665,-27.860776050576426,-15.131197548543788,-6.860605404634276,-17.809407419073953,-23.51329847637234,-25.19268241190016,-37.194489954691555,-33.084076634570714,-2.201335442390267,20.924045685799904,29.731550402042785,41.248310592115644,39.862544892008344,21.02483420465613,13.940758025543131,14.054356959875218,-1.4046164111298216,-12.041234175711162,-2.3918844978823324,6.627047419115916,17.109366401442394,43.35421129384339,63.31332215048483,69.18032441363864,91.27903229010045,125.92426802243875,143.36917617448734,151.04955391838485,153.73862703817431,129.73586033607495,95.60089266433638,85.33190148839711,84.45077891715175,77.60338440986727,80.45508720164062,80.39690076395236,54.37696984763717,27.789747964913296,21.78853434562278,15.706340975623158,9.239692403440866,17.873494886907807,20.472197595551712,7.426058585295656,8.294151205679551,20.451580368637458,15.595218200567093,3.0946373799080065,-9.398142528099442,-43.94258202640579,-89.60174756489775,-115.23250007428805,-132.9779237564658,-156.02008228904592,-163.97903686600569,-162.4874793658512,-175.71910834082595,-188.38602911253892,-188.65106517027212,-199.35387918565118,-214.94092111215872,-210.55828293936173,-203.55646407943584,-209.29585285771202,-204.68952198125427,-189.12919269209436,-181.27057995060838,-165.61310626111793,-135.83459676757167,-122.08669842654128,-124.44566914775206,-118.89778658073126,-117.66414380924903,-130.5042529867889,-133.66923977149028,-128.42143962900826,-133.57020731274213,-131.7408494011685,-113.88842447392011,-106.9694739740749,-108.59656102024407,-95.86469037985484,-84.19974034322124,-83.5973150703988,-70.11204715915476,-49.59252658481672,-45.66323481891792,-39.70589519150567,-18.047511958489928,-5.44796857448027,-1.1005053072643127,15.110692024714183,25.793195047708615,20.06142700149246,23.37632140536815,33.35973954367344,27.637806004620558,23.894896094073925,37.304656766329565,46.130937188827716,49.68914045739588,61.540012412522564,60.78488449537173,44.11205442116386,51.28701950987547,87.45625708205034,125.22568725302223,166.03350212326382,204.01326957997543,211.02943512379863,203.1343964185469,213.13197367003175,223.15450669933836,215.42976636871003,205.9030369121781,187.59936261739017,147.2899883113912,114.3075194414068,102.9553024536738,86.65680497088125,68.46468308424636,68.42098199842235,68.04707068849727,59.58148851039036,65.88906496354888,75.37989270910529,66.29060267031693,62.67816403836333,77.30439679288094,86.20699177133199,92.88934371465116,109.98525117343736,111.30123986253156,88.70984227803045,70.64237436270653,52.70413351964254,16.06132151382478,-17.187128009582377,-32.10207970534296,-42.821184056948915,-34.819970081410425,9.716150818926735,56.44674056571814,75.92430728614642,79.72559562055511,65.21613747134803,27.731145016769947,4.506731832049967,14.83121616341641,27.85903362258663,34.274927553487935,48.42368693676913,53.66069529936295,41.32590714283916,34.80174644569246,24.91377834691319,-13.08464764331258,-52.5695463668729,-66.04879966659689,-71.12498999673076,-73.70177095513729,-67.58088130868295,-77.1422377560157,-107.28560261420446,-122.21674205999108,-119.39110030461349,-122.60206983392024,-121.19995570163869,-109.21103212751551,-110.78651122151334,-119.88858743755559,-113.91802870678347,-109.23593652863612,-114.67589641341742,-105.41960412095221,-87.69984525390679,-86.68542198380018,-88.45756362949196,-84.31413261984713,-96.7571589887896,-116.61800799227244,-117.10308323100304,-112.58885572459447,-113.96976642697845,-100.66652664338147,-80.81034844203624,-76.40429979588546,-68.49638227616764,-47.05914052065186,-36.91254768911567,-31.293803642968676,-7.721161422072168,12.320933796823088,16.06374538578927,29.316081457934846,47.35474374557152,48.065883334973435,51.08171033336569,66.79576294014045,68.39581279477065,60.42267616493419,66.67299053266133,70.74381552576654,64.33615227581998,74.58254572326227,95.74006037670232,100.99147690506356,102.80839534867869,110.4999423678942,105.556787961834,99.61334950442415,112.12544339513892,117.38167362782846,103.01506933530487,95.74840777569443,93.70068265914702,81.94874966749106,81.25897550398399,93.55039600688718,87.34563559038236,70.16601609962828,68.00700090723767,67.13302647934539,61.338157166609335,69.49415438582587,75.90661803467971,59.8940926189746,49.34893217055256,58.348543880823854,58.154102995791646,45.68543189955412,35.4106001090818,14.917337798695637,-6.684034280476777,6.528499040889109,42.938878754481706,68.86260313083116,91.47203346692771,111.52642324359795,104.28002533779873,82.95531438025291,74.6308544627192,64.32138746940076,46.32328429301771,44.21130332970397,47.05844774163935,32.24497979944761,20.678446629676372,23.568445437399767,18.993526351300282,15.298601432324865,31.328700162549584,41.690951573099824,29.21217903817892,14.123062005260486,-4.073835599958435,-33.0490715060156,-44.783602410891056,-32.4361437695406,-30.124369393041395,-40.03368446969158,-42.2085173864607,-49.5327183568059,-65.82245858638015,-67.72695952554449,-65.97522459381213,-83.89162537096267,-102.33439694131728,-110.6784515805494,-129.54674026478904,-147.28935440692047,-140.19105907637996,-129.29002060039463,-129.66257775135102,-122.70087306140996,-116.24040618814013,-127.91655126893022,-133.6143915949769,-122.44047126758237,-121.90459061813428,-128.525223353112,-121.77375259991206,-119.70111232916186,-128.89284325355533,-122.93097934573942,-108.92091184709375,-108.34298585050419,-100.4887507860115,-74.78375817936849,-57.15883404027415,-46.50537143851255,-28.89119503752412,-25.713228287218815,-39.818650542108756,-38.562463279847535,-26.86212664319715,-28.63962636333362,-26.11047400902729,-7.818574862905642,6.631646585551426,24.24873569211846,54.27394358432946,61.78393724122691,34.93194045664112,8.221826590629174,-11.992015228434436,-33.84156197544611,-32.3262196946424,-3.933529688691408,19.719236148976133,40.02018490098419,71.06829266992597,91.21764488453552,95.25378228197428,109.11474688967553,124.00716887526957,118.88545000491331,113.44085339624436,115.47003906187675,101.93312426373222,82.60335975028583,78.49767247313255,71.29805312313684,54.392382586946624,47.45904469459663,35.53630435340269,0.9956728971081219,-24.339901375734453,-24.68279361486329,-27.76979487501731,-38.761916258597026,-50.58126985484599,-79.57037036956463,-113.08200354122104,-111.39524756233043,-85.3218519254694,-70.68260707980717,-63.80068502224927,-60.95100640415842,-76.81661963169338,-91.13104958994279,-77.80707935272835,-59.257807420541454,-51.16398930185419,-36.565567611659,-26.605287150205783,-39.64007788001333,-49.79160674785566,-44.061922313497774,-47.597419173177556,-57.47512086955696,-57.25590699355982,-66.97831496816364,-90.93195999571584,-99.04880353138655,-94.76984605845851,-97.2355534927737,-88.66864485090098,-65.40850408023289,-56.35722725133131,-56.90404052173261,-47.98952822230113,-47.0171806745282,-56.19107787581151,-47.29282618566508,-28.631857948405468,-23.572707690575093,-16.875284134281692,-3.8574806580227445,-7.258829633676302,-14.692306852468704,-3.2541888978196254,7.1275536798290124,7.748914775792145,22.434107744461492,43.16256502684307,49.69097098847972,60.77389001635129,80.49655010860457,80.55214064697772,68.23399561464583,66.59089948314617,61.976168897661545,52.80198649796706,62.46686526304323,75.5604649712692,66.36188278748514,55.65735842236547,57.10010324296928,52.231962351824976,47.63458632859455,54.936138617577946,50.563058978535906,34.977321110320254,41.018632691730424,59.774369427573326,65.57341544227052,68.67106645384636,67.75868986050739,44.276164876071554,18.416091452564686,11.758736202603886,3.3607222924170816,-7.860849365542023,7.241694574943594,37.45058135652013,57.85329029634126,83.32894592594747,115.19899886251132,129.718324940728,140.58746741536442,162.89220419255275,164.38796371803005,135.48341028737883,110.20129448319628,95.13985055597664,82.47936073332343,88.31461894586008,102.76013698779131,90.9826921264211,63.26314432484739,45.54619271820401,25.306830564340387,2.632531277401302,2.5703719257299507,12.362894669091137,9.499611916553826,9.325801727639991,10.895150770407007,-8.179220909905577,-25.96964906102397,-15.104466957791468,-0.1272805849687062,2.62903845479168,6.441415276511184,-3.418328735205459,-38.28845356090775,-63.22503617580645,-65.91217878081524,-73.58334895320333,-82.85909783088589,-81.65372854715785,-92.61423494791563,-113.19803408234327,-107.55550654415116,-81.56728652937034,-59.51995500197772,-31.11823757460828,-1.5604067321107653,1.030550796812307,-9.552764040465778,-10.442041541593522,-20.653131017488057,-42.96942293530744,-50.26115008394894,-50.54895167544681,-60.44582105317799,-58.5633700783621,-42.25579343923053,-37.022859884305674,-31.116694569486263,-7.438169869255364,8.0458871827958,8.292639459729312,18.617265133960725,29.6130787750536,25.137014126765067,28.386952176863492,42.436595533402595,41.11751055025042,34.93532510021216,39.57238191378805,30.533325027478966,6.260268317112596,-1.669754381708889,0.865223834104127,-3.500833631482031,2.302246458630311,15.153388778029242,10.52059191645793,6.396266295630317,21.464812069002676,27.454368682589266,15.806678663099678,12.069474910939471,12.398534445138745,8.99772215038464,24.96984189588379,53.044531614773064,58.035675959695084,51.696111004461855,59.21343205983685,65.27019567556621,67.9622167202354,86.11834805369539,99.2568142431485,88.76113643357536,83.91120342691201,91.08699133109089,79.94527306948861,55.590518023257076,33.97560284208388,-0.5608863697427111,-36.62970495392868,-40.05597566880748,-28.89719435652457,-31.444772902993442,-28.88142112543032,-16.410565437061926,-15.275284021367051,-12.108097406924168,3.9552336938760355,2.5621772719497833,-15.694655407766007,-14.608086546574757,-1.0860666626156408,3.9764030067286273,15.485562054553839,28.867021058566138,21.252571282458092,16.749190267851358,38.34872873162497,54.66805978150305,49.51092360853901,41.13191156279079,21.2758083386291,-15.620315840666338,-36.659861611357336,-37.03028931123418,-44.405364706719595,-49.1217120993551,-36.23938185192013,-32.921170301815856,-47.91746404065228,-56.297851421627726,-62.264029831735364,-75.08570803233326,-67.79306540159031,-37.85518530259061,-18.579876152584724,-8.88535679342937,4.10918002189143,-1.1809004505431124,-23.797127401343563,-31.459727785473802,-31.605654232043154,-44.827355867083625,-53.828962029824126,-56.629093854768804,-75.31460219959222,-93.75648720945294,-92.04144218755022,-93.93197907335437,-104.69266822795353,-99.36569144760969,-89.17435533211652,-91.30859033845803,-83.35435087066429,-63.79828817643899,-59.11207333527145,-57.1237857613784,-41.54540658338362,-37.64114300374102,-47.675479949238735,-42.33272431496989,-30.140295620379042,-28.015280734709474,-17.21415185947567,-2.388958989465201,-12.475545446813804,-29.709193964722573,-27.78250473394357,-26.16634698824489,-30.69145412449317,-21.99739380595002,-15.519064952324696,-23.96569738992276,-15.360323449654313,16.110502441555003,37.910854428870536,50.76684008675797,64.24302624978884,56.12389261810283,31.03960658516996,19.62642627306079,8.105761178174749,-24.109706597741074,-50.768861427972105,-59.81765723534963,-69.19992129114839,-65.67569698989948,-38.77030525226232,-21.33837986260554,-19.388812078641763,-7.187070713264696,1.8253963139731877,-6.036032528080284,-0.917999079390158,20.976628068291152,30.20648743245473,30.82638999319265,30.437678682670747,7.791316171082245,-22.71201619431472,-18.14665267566646,14.844192139980393,50.33609481433577,88.97010952777603,109.19976622885825,81.38313290824141,37.82227569575849,20.509641504389066,15.775866658361863,8.454987594308642,-0.21466796517267184,-30.436415883510026,-74.70765748042216,-78.95889399595697,-39.49104112086117,-8.906029576787953,-2.932257310463002,-8.475970999214109,-24.799456863332814,-29.11533410805506,1.7761307947900935,29.220891121104586,14.35862233402573,-16.4088968954035,-39.82832637145524,-64.89492168567203,-77.97332237747054,-70.04329785280072,-70.99089657521577,-82.62913138750984,-73.67950524004397,-54.386915801528176,-47.971638265071135,-38.10069467372421,-22.628577356082584,-23.407939124038553,-24.560560730812767,-7.9362869574721895,-0.40649771449308825,-9.3063651375174,-8.810924127734435,-5.641220278825157,-10.624027159945637,1.244590870628648,26.415154052072953,29.288314080710997,17.19497209967171,12.334442662357596,2.063289263665138,-10.133185806414023,-2.814949755452955,2.4632137729052497,-14.460840010371108,-21.704808804210245,-4.753498889282535,12.981781321114173,31.64731802622302,52.49225549796087,49.41139302049358,32.22707524279315,40.376279262131405,67.03538005934553,91.07929626374562,124.01566784270545,157.52274376507685,164.82803147504245,161.79878395450476,168.41241367122817,166.9319622321596,160.48249956259656,171.58483861825425,179.06942620543703,161.82952671471958,143.26236589660516,126.41494636727788,92.54255716762572,62.79992171489525,52.43244763328501,34.03056945576271,8.888574604084134,1.8197892076011115,-5.411276838476779,-25.468763720656625,-28.382566054736138,-14.660418434866008,-9.231167656048754,3.6966255219294757,31.761012548832866,42.839336424436745,37.87493537591304,42.55245365565568,42.301762994049085,26.493980137152782,22.100566159682145,27.065505775393014,16.55529445541415,7.641156410809117,15.56413062059371,15.326394884081061,6.8095767420945315,11.92801455331795,13.219568477055898,-1.4542226486819398,-2.8043223676734077,9.737061437454997,8.597349202919242,7.9155248447098945,26.51596217884167,42.84368141282066,54.400034276241726,77.936512002017,89.29567771981971,71.17279737810131,54.68425163953972,47.6946108183263,27.43415371657123,4.791987714176529,-7.538185145057456,-30.74024203672083,-61.11350893086766,-72.82411034018838,-78.20543512744672,-88.43508655604944,-77.56448652434406,-47.59510223134268,-30.494162139684256,-22.437433664339416,-13.967783834337158,-25.60116081446263,-49.94649938385851,-56.90828412280448,-59.01941236629369,-72.94882850267786,-78.12137140617402,-77.1699339426414,-95.87319031191763,-118.78787056835036,-126.519173262549,-138.39920454118825,-154.05356989780137,-151.86189191021134,-149.33089156792516,-163.58210280170064,-169.64469055825253,-163.4763489825466,-167.992411860433,-171.02341724117736,-159.47340531147466,-157.9791358476981,-166.8186325523281,-159.69637221863974,-147.82023989442166,-144.43310950181183,-125.78986243676854,-92.7474167902372,-70.45768412558803,-45.59298218749197,-6.242278815932694,19.15953298453207,26.18537755044222,36.421626450948615,38.23806749192077,25.510700507922543,28.196666418104957,43.91813536927248,42.9176217445428,39.40669383876249,54.97706103817197,72.79641514716424,91.242535399941,122.05935017258066,137.5098488046483,122.52099415047549,112.65414219320849,118.39287814955004,117.678263854824,118.71159650706636,129.03858513933412,127.6941538943422,121.43291568005287,131.95493950665914,137.7283989732129,122.00557641023886,111.4875543294144,110.28782923039029,98.31986294010333,89.60395624872272,91.98127153138392,79.47867791317854,59.73500422605108,61.161079314236794,65.86809165450175,57.265346872743784,59.06163670772662,69.31514544622733,64.97159523385824,62.75908665831618,72.75531105540843,66.17135093767607,47.18366824871006,44.55867550577536,42.54498427893482,25.727880486093774,16.460138749734192,9.612263049824886,-16.621218278374826,-32.85185729730189,-9.560775284523462,32.10615307951572,80.41367743920296,134.73514297084472,155.8037897685428,126.64303977689173,93.71412090640038,81.12535475914798,71.15484801197749,66.22139336787362,66.63255376815697,50.26526977812546,30.261440233030747,36.51409292855636,48.16431608463134,39.60667987643254,30.01522262665624,27.659097904238344,20.308129608102856,21.814907991487647,34.995332056015656,27.150855674383365,-1.5606054502259212,-22.116400281286477,-44.20716071324336,-80.40356084967213,-105.92471650752721,-118.19633947562565,-138.86777664404337,-154.14378475589072,-151.9358671896856,-159.17208647477432,-178.65622558089672,-185.86794225683386,-191.00197458967642,-205.20726304494931,-204.73109637856402,-191.71309253204294,-192.68172198032786,-194.71045585144321,-181.05964684830295,-171.45743415163983,-166.76708199182144,-149.3701281461679,-138.2802251940896,-147.66412146972155,-150.3896541131035,-141.75637622143745,-143.37372043215055,-143.9297445834222,-131.44289399852667,-127.68132774774858,-131.09585306485667,-116.83092856487627,-97.08068441009517,-87.52411916789096,-68.30136905627505,-41.488573060297824,-32.76039872596901,-30.841572991714653,-22.372946074777076,-26.61521788374626,-35.91264733498216,-22.79502601333168,-3.6702672169086847,2.1993131090603866,11.585583159478434,20.576522764115154,11.329113140133527,6.1648959704393835,18.60267609249751,20.897328404399296,13.533145813362363,22.162970572757263,33.43528015904505,32.908428149478105,39.52917443854186,46.84862968346273,34.34838371041994,28.74754557160783,53.18363513483123,83.60140309571082,112.33487282089972,151.62473005304614,179.68564475427524,183.82126023977528,191.80376709838234,203.21174045906486,193.5866171834778,178.08273508994114,170.72902932485516,151.0651268452595,125.4284133814855,118.0476581791322,112.5736951744865,97.06273637537302,95.06430288378115,100.74811183339517,88.29166697908634,74.55676803253769,75.13342069634919,69.34813066802201,62.07718416939922,74.10759803947614,82.39845628503326,70.31489592654036,62.75960170839184,58.39266820071126,37.16349240989159,19.73963957187975,19.594988887978285,12.689610981078221,3.4448461492795097,13.321706733007154,21.71641473130834,13.979584896398206,13.16297626469683,16.468967494429933,5.886319570401888,5.092323048473945,27.951247792444597,44.63059652728896,50.055285561049814,59.707842570819565,53.05760518305807,22.46329318698246,2.3834969908033083,-4.275969129925111,-20.660502657445917,-32.58063869345717,-30.7914920604492,-41.111025138283125,-57.63043139732241,-52.60685204538461,-42.154910924942214,-41.37298746011625,-27.722332975785072,-5.456010538410997,4.425014527766166,26.83927613953936,78.2084141950271,123.7301636410439,147.32550649394085,156.70138137827507,133.30076468784884,79.85886855606336,43.66683846966865,34.22667656104729,21.44649677672271,6.975195805715888,-3.885047768427953,-33.04866881132903,-70.49118711152062,-84.17887761459991,-86.12253453997504,-91.67226081699133,-79.82185860511878,-55.1800181052199,-47.078991889990725,-46.42224029448711,-41.116033153970356,-51.67517373572696,-72.38831028215878,-76.29048555583559,-77.77951034321192,-93.59361223921354,-103.12413055157697,-106.52382097553004,-124.27858716394411,-139.6368464395458,-137.59515112062263,-140.80437206350797,-149.2843159086333,-142.049105999872,-136.03186036921068,-146.580367034117,-151.154999694106,-149.8173674689791,-163.53929754764428,-175.9203429267797,-172.99598878709315,-177.72004548107049,-188.13012669335498,-180.3705229803148,-169.9154473912725,-173.11171298447044,-168.81675869816195,-156.097393274253,-153.0731235627754,-140.71371889103196,-106.02262784043977,-78.79216470811436,-65.3392977402253,-45.49842748129268,-31.777444136210363,-33.533249442927584,-26.096847336388173,-12.383345589036397,-17.701276020602727,-28.255474220744382,-29.954678155708557,-41.64455836981478,-51.776599620290675,-27.277123892541393,16.419657612331505,55.05783230637161,99.15557660780702,139.53730246820015,155.92122575647397,172.91046934401942,205.0807199085517,221.89648672469232,221.78718468823237,228.0352345505432,227.01639265079353,210.24100629933554,201.45290251911325,194.8042802372863,170.54725174355204,150.81231768175908,146.64487696299997,131.6844922327774,113.0538628257687,116.55855449240289,123.94538510181883,122.58549965353967,133.40409313543307,143.44208104692066,126.17712101205638,103.90324177913308,91.16921697518674,64.71468067859044,33.44124946677814,22.13653313034908,10.233775107675086,-13.485447229685228,-20.614578858508317,-16.259819136227943,-26.322765665328774,-33.554574792923034,-28.18545729811912,-37.24199178769252,-54.59527873029416,-55.21695338261122,-56.54087371795693,-67.44831418042159,-60.90012371133565,-44.491384941934584,-45.461790171474235,-47.02601263927001,-35.898286571118106,-31.674539646230926,-25.836443081771584,-0.08918215865013224,18.730874009582433,16.04387983847564,19.493910377555043,26.46665407735102,15.349279947664659,6.554470506420567,10.254915557753135,0.38285159903437993,-13.241383641953034,-5.031888581221959,3.8176385414884333,0.917075254531535,9.821031005984699,20.77493316276813,9.732103590532496,0.30784845016202467,10.250980751492637,18.70432995444418,29.677136550743377,57.55715996163447,73.63298712254712,62.94864154962309,53.421435797702685,47.5800433036171,35.257079500822826,47.106527960401586,96.42028409212594,143.94895724173816,169.56198291188798,179.78822734098233,161.65818434490026,123.54553227275531,108.99644201119645,116.03411056048712,105.79322270917069,80.97498289697315,56.19817568009058,19.03258814277109,-18.844728422239204,-30.788109309402195,-32.13426351700349,-35.15587761851441,-17.264737323944907,10.905414140250599,12.842923462421828,-4.397767038769747,-26.145220023619594,-64.74725365437469,-105.03313206326865,-120.42564372435238,-131.54298889337593,-154.7661396887461,-166.30406012988269,-167.0814256110296,-179.20156153845045,-188.46719610345787,-184.43995131700402,-190.645575633645,-203.20342092267362,-198.03337515677737,-191.34027590480753,-198.03063175624038,-194.29785055111182,-179.2135103124711,-175.37281033126845,-170.58800795221924,-155.74346453646282,-156.129375376386,-166.27309047954918,-156.47968386072154,-140.19717922912304,-134.66831416291856,-122.14901290194342,-107.8603599108677,-111.97470931903662,-112.90910756729062,-97.17404812023018,-92.47739570878063,-98.01483026614329,-88.12198139301938,-73.31937318646631,-62.837990410505874,-38.241223761418716,-12.844244946331312,-14.668383919812186,-23.822063905738126,-20.13241135935366,-21.755201510356613,-26.318505787436298,-16.204064899548683,-10.452409127559884,-18.329360312028786,-12.162376303229745,5.798017162044672,12.192826971669913,22.04502793620001,43.99284877503912,51.82912937914864,51.94069000678005,72.99659193659036,104.01837846616777,135.40853109968586,183.56011499387014,230.14101000377292,244.71462516590117,248.81466278204007,262.6901733934853,266.62046983215225,262.83997049014397,267.7002011715594,260.6973472562064,236.09623787084143,226.96474715144262,231.50583129305755,224.66044593249356,221.65134687607426,227.83091897855482,211.2861111979531,177.71885479995717,155.45769468818858,130.8944964920363,98.46203258239193,85.77538541455549,84.75275144715522,70.18436483410535,60.88957408619291,66.96038904536236,60.91077918118281,46.598843971579406,45.36061798734907,38.16575563375362,17.28951649382296,10.642492147749861,13.408926660743807,5.547352675477039,7.62384079974245,24.299771939021397,22.309197012519906,6.860856860153732,2.770552738634306,-7.513962875688342,-29.82002037394579,-36.83318833942336,-38.91927739075538,-60.80539751795347,-79.13365204260448,-78.7065073633978,-82.67896081066385,-83.65952273159611,-61.52004112423708,-44.08679095268623,-49.2291263282978,-51.67722663463209,-51.036504337891756,-60.85781341219523,-56.97456175447232,-27.197705424693247,9.545947481210852,54.26522673964066,99.82851023791949,111.42843324924795,91.31235151657702,68.15711679824116,47.794023874383626,40.10262193731222,49.94413889646944,45.575380566508386,17.538621330091868,-1.4116635594045115,-7.943416857715425,-18.66977505206754,-16.60352146689682,7.6682385763700776,37.2392694487069,72.7080533421032,103.3690824821593,91.14480373572859,39.321697004351435,-13.181967519015247,-50.468048660117994,-64.67359882366986,-53.65252141785274,-46.54965494011348,-56.232877289377136,-57.75197346403769,-53.38186871268928,-65.33118850064156,-80.22316701074905,-89.44869520881161,-112.32561651385183,-136.67520891767373,-140.02476425019185,-148.69632239998134,-181.16885350533553,-211.03943150217128,-234.8027175167908,-266.9680709347009,-283.1067515574606,-269.62829839090796,-258.1512292466447,-255.1546191616041,-241.3275919860152,-229.64180980526132,-225.9095627976552,-202.59836326965183,-166.62785581534132,-150.4321837656454,-144.39559789847698,-134.1500283576344,-137.17854004712717,-146.56786143997715,-138.16042890856912,-129.60918853983907,-136.9655297854948,-136.10734197728465,-125.46783480875443,-126.56476021485408,-123.80047626733932,-103.8802204544815,-92.61054330777333,-92.12416872565237,-80.76825010113156,-70.81668561768316,-67.94542517618574,-43.45835651943921,-5.2095621184096315,12.159494672083925,16.967633831488463,21.030263130938962,9.54986192031539,-1.20314978943337,13.803212300296844,30.054224704322447,31.75993937292753,45.43942117247572,69.17213235256196,78.91659349888081,86.8335609298013,98.35900372938153,91.77425018660082,85.15954559903832,109.8457762500916,140.0597196298671,149.1071200547857,153.6490502950542,156.07184985872672,149.41854537978082,158.17990648755327,183.47816569772687,185.3305738084476,165.1800709595787,158.700575913666,163.05820775187397,170.93865011940215,198.50015861371998,227.09119021424857,227.81670795289094,223.63853368150458,229.6529523859665,219.44126373503624,197.36639568611776,186.55408867481435,169.74180923849795,142.53374794539056,135.62907953023213,139.29700747069052,124.43292203066122,109.84402856001158,108.57371487131812,96.94427354582474,81.35982419543998,81.53185681984955,73.85708719125952,49.26497443941306,39.4223354077394,40.140980179781,25.940253665853227,13.962814948388619,12.980246920341951,-1.7627471964798271,-21.58875132355365,-26.042639647686972,-36.83560920976168,-59.10524824069836,-61.77799065176846,-51.74906263107415,-54.099430911565335,-50.77573862213909,-33.22608676673466,-27.606896144173415,-27.201100141178102,-12.108944487960201,-5.273022239105844,-16.107275889314987,-17.95680532931801,-18.118942392287256,-37.574274655602004,-51.7899693951233,-44.10585981717649,-35.22310126104626,-22.486626079615878,4.924125461195754,19.776904414486385,14.640955510987965,21.98127060095107,40.07196407230175,46.479906419385,54.18396529194458,64.13535465464041,48.16980773375567,16.962321935294927,-1.388332008210959,-20.515020115625134,-45.18564937109699,-47.06908444909924,-33.335155259883734,-32.95670200750318,-35.87348105699942,-36.93906423357433,-58.98690158867156,-85.40573566413644,-78.21058240301824,-46.53114029749686,-5.48646158768187,55.13869202443649,113.5452503765022,134.54449577568602,135.28284162960165,137.74683341938027,127.04586339711048,109.1380103178989,102.99926605398193,86.38736460763657,48.04154190900782,19.36734035860379,2.649500011381247,-23.673500363797928,-44.20212684763287,-49.056261701227555,-61.93700972651558,-78.37965127864148,-78.30358900243758,-81.75214833076198,-102.17375657690516,-117.1489888786703,-129.76954762545896,-157.75818797305018,-177.14735191420846,-169.8424006791629,-159.46516398145172,-151.40110588535728,-135.11333391253905,-133.4799411280717,-156.2726584077448,-171.80742175278988,-175.27035899971472,-185.05428705497116,-183.89654451674872,-160.34616601946414,-141.16826077082555,-130.1412218637793,-112.05869666245394,-106.15324338381042,-121.72836644766811,-127.63129127964292,-120.1320472049848,-121.73298376835224,-120.03646234194281,-105.4494421934647,-102.032725737215,-104.24213723079568,-87.07012705304975,-69.47600244487865,-67.45472571671773,-58.594452310508544,-47.327165752452416,-54.83237822507792,-58.12246912056395,-38.91085969093952,-19.94040118103917,-3.728578925463471,21.2664075149164,29.197198615187908,9.69664160946116,-1.0030500378088263,4.259444172293242,4.677087057780462,13.469113042171932,35.95974777907565,42.21224669653307,35.20138329336864,38.99759738607225,38.91155799136365,31.86909778182113,51.56526623092256,92.61772633718934,122.46642353834251,147.97923425795463,173.54575440196183,177.27926746477544,173.96579840534466,190.00068802420094,200.82092415090224,189.44607525435163,181.7595217385003,179.6073012995313,170.33960049780137,176.76125214421967,202.29977586477156,211.420781785407,205.67318455941023,207.31132928316117,198.65710595359343,174.25184518125926,163.19781048310637,159.08909518301525,139.50165254498538,124.52512433539468,123.54006572024484,110.71377388070592,93.57824617725187,93.38935158829506,86.54578675811695,62.66733023196763,50.51910909820282,44.433982068352925,21.414918745978103,1.3844594304649176,-6.579722184388621,-28.072782602549633,-53.31557141744252,-59.438455765154586,-69.16338223830961,-89.9996645392808,-90.3023159287818,-76.04605371052529,-72.0730124455701,-61.13099884573494,-39.88523126970925,-40.359081221959094,-54.530404833595185,-55.56689043987866,-60.55327718752947,-75.0335497345964,-70.02863488972031,-55.244056860196295,-58.58983586361382,-62.0313983633125,-53.77876061157604,-57.97048900243538,-66.67821893723365,-55.57978764612755,-46.50950232782521,-53.68961124408767,-51.11252251733656,-41.09837674328766,-41.866797714972975,-31.493225279569252,-1.230750219600809,17.677683893115557,24.034569889074284,37.45298491231633,42.7467506785856,33.60311566615639,33.743712330894006,34.616825069693995,14.846694518814694,-1.3855418538118238,3.3173314138779997,6.355139609270193,7.084010597191566,16.684631091385775,12.539859709955989,-3.9068648991783617,10.795109632665651,56.62893932486846,96.16595976899347,123.74207292020401,133.19492121321397,101.029389374514,50.68883851335682,23.210454347773563,6.345867941770021,-11.404978577233948,-4.311465486201756,22.00553311891451,37.470377113794214,47.00706038633205,50.94911537521159,23.96589717625723,-21.021163199760593,-50.906488562196444,-77.67145346432378,-113.49769552540494,-132.75257215744585,-133.69265303421835,-139.04028054133494,-138.92026984509738,-125.73108114237817,-122.42857343038989,-122.5562233862602,-99.33137799983547,-69.70326863070717,-57.4953251151191,-53.12609817559038,-63.14824207993831,-105.11262925328256,-153.78705969072686,-184.0146923431953,-209.90063972386966,-229.3649018418321,-226.4049405301781,-223.19103636176493,-236.46050221877906,-244.77152874091394,-248.067234977022,-259.96480345876665,-254.60938342784596,-217.63281830992315,-179.89291972971873,-151.1711863276962,-120.45516276376546,-104.85486492468915,-105.90926572989852,-90.60142659783199,-62.961086345220096,-50.97117298750169,-40.44395892781595,-19.44617623260404,-10.667890412124496,-8.131890132059752,10.592635456181739,26.338357946522148,27.965894999588713,40.61635750896178,57.44334386939953,54.27684906110797,52.05502041300575,64.17336497560292,63.58570151821636,53.35392827029483,58.14032698455364,63.681278359044775,63.03550422763048,82.39794298726963,111.68612014283133,119.34562676244445,117.91620359551877,118.46308589881825,98.77302868730587,68.3156084538013,58.31323439706927,58.26827156929788,56.65770785436261,72.52685693239039,95.74228632159186,102.15583806376205,113.5296119100114,143.16576848011795,161.91979166055495,168.59715912311572,182.12629595326734,185.96054284765626,175.30646801439843,176.98798202474498,181.8125897615911,164.90294689825024,147.54498126282147,144.47567352188386,131.8510314799452,114.11749998935167,112.04767471638314,107.11297924027781,93.34112794992326,98.933840159525,114.14621481675655,111.02864592793819,108.16938304822945,118.62032553120973,