28.11273648270498,23.923909856537296,29.01739310270727,44.29838018498789,45.54683141310068,39.602870003259696,41.668454787033724,35.68264208524671,21.735606079775792,23.377030498561197,31.26545919999451,27.377114972985364,26.64580811443394,31.255051297831546,21.312788865268324,7.426630920272335,6.144415064369925,-0.14667806033446196,-14.910142120742762,-15.736306633724444,-9.934188464586232,-14.2035933235503,-12.96173404432157,-3.7558119046125213,-7.6979294126888345,-14.083642791448925,-4.907343760504281,0.6511747025251895,-4.733319126918211,-1.8758843930122526,0.7944843104788104,-9.319092833446836,-10.462829635699116,0.40635346761108515,-1.2265544414786094,-8.02547609198418,-4.884544869651918,-9.12337555999173,-21.607267197582434,-20.429284659894996,-16.680185980534645,-26.542605531612132,-30.16126338316651,-22.464972513177514,-24.039959819173202,-26.805503535406835,-17.376092161471455,-14.995625709354936,-22.468795215907654,-17.677796603101054,-10.16588123117418,-17.135384972122814,-20.870453077884694,-16.22849275344969,-21.90038605316608,-27.40141243677951,-18.528281242818743,-16.37192362803708,-25.24555138915511,-23.147007939572497,-19.09436019565267,-27.467565300565532,-28.53062527581009,-20.05790868506218,-24.182431869292973,-31.18951613369833,-26.622996785571765,-29.442440551635144,-41.14251076521293,-37.796849603756066,-25.75050328232472,-19.32565512225349,-3.0675111849704004,21.514367378252818,30.269570005721967,33.93586992008827,52.51897966493284,68.96847535678361,74.16396500777728,81.85181378435354,80.6404614554922,59.012350330430536,41.984317286560724,36.270790222854515,18.672162482908075,-2.4897495118798583,-9.20378326899348,-17.79819705950683,-30.964164525438804,-29.56098801712959,-27.878750398499903,-42.34654896253994,-50.57422366134938,-47.62161833407325,-55.33593354890662,-64.0838840157216,-59.353325721919234,-60.99466519084695,-71.87720156204627,-70.7076734898101,-67.19025470865203,-75.13909295656667,-75.04986535877053,-64.86769109377789,-66.33741130521054,-70.5571019024718,-63.65969857286463,-63.771250525514446,-73.08937233487654,-70.64075052448499,-64.6675740198739,-68.0794549827687,-62.52543894524551,-48.01596031229284,-48.39817541731542,-54.42425506730419,-49.48620497415097,-49.60818805395747,-55.94410987606516,-49.435328981792885,-43.71442516631104,-53.28755716156292,-55.49899857491795,-45.854554814671346,-45.433609325090956,-46.0607170886076,-37.3476584956187,-39.33674009678949,-50.86790260425351,-48.73911050105128,-43.29049308653501,-48.948841247854084,-46.9605708108142,-35.30780593355729,-33.87839134013687,-32.65590650132367,-20.01348072804187,-16.27661225500254,-23.059629574851282,-19.196397468994164,-14.097799832693685,-21.417519929392526,-23.157127258132853,-18.007507356768475,-25.43514100573694,-32.25491529609317,-22.893916504833385,-17.49380660488872,-20.223554281294767,-13.083897086322228,-7.568888580040422,-14.233855063654756,-10.276253058043793,4.524144756696613,5.809873467254434,2.9015061988862265,9.34312147023297,7.204460908394692,-2.003368755211901,2.44899903855639,7.623350797401499,0.48533637112128325,1.431302730759196,10.526180062428441,6.385826887761594,1.3019007623873575,10.161741492421053,13.783249045034143,9.53725814134599,14.996965238207377,17.14983143729669,5.145622503043789,3.5110785747937245,15.102975111112505,16.874960473544675,17.181263743036542,27.442154700718632,27.350275390549474,17.595059211086376,20.69128764777827,24.47694798302506,14.94351965398618,13.061880612399543,19.9995796757912,14.968346945078826,11.093772855956882,22.001688186547778,25.83776360681115,20.495390555614676,26.715515689228198,33.37737353115954,28.698714658319467,33.25650776413311,45.88413342209565,43.46951501365934,36.247250266122066,37.6020398310039,30.99340355043669,19.85566128818218,25.98434282244406,35.34184598916007,30.85753557457116,29.94218337883131,34.03847038498883,25.724386981755842,19.17797556082591,26.394398507907397,25.277552072194105,16.224347292189776,22.551580872256533,32.3719271433409,29.73876298413815,32.133718118892006,39.847128430627144,34.40216732549116,29.74991138558304,37.609292928638986,35.49949326346783,23.566034681352843,24.920139505585297,29.21144922186862,23.659766340981975,26.09220360740228,34.08843595234703,27.162047802847084,18.433395802569347,21.486768151110606,18.217509506886284,9.33665881694965,14.027566904539162,18.158461733780086,7.410095989368242,3.6845407952610385,11.474045637823092,11.404235914723333,13.59634252527446,28.08766628662574,31.844489822523133,24.379821836510445,28.362482671791458,32.50489449497893,24.893824512963064,26.822439188801695,36.5725399336919,31.007287909857563,22.915094739212535,27.05704539991399,25.382232548736507,18.71675294567246,23.872120696273075,23.324851055076138,5.2445631862034165,-3.919802448962105,1.1109162512257464,1.2517883022466214,5.274713576389367,18.834632904590002,18.505470619332797,6.5937544376465675,5.914165754815487,6.124662172981865,-2.5084043229405295,0.16076782642764487,11.453768370702592,9.870509894002133,7.018337793610526,13.485187784451785,9.094705717541583,-3.839113175922965,-3.7611644517449925,-2.470634026798732,-10.497111042081453,-7.653134296825219,2.479302208510002,-2.1020656896630463,-7.777722771894541,-1.4527569081051066,-2.0034108377440045,-7.83064041657047,-0.545537364451409,5.818213919592485,0.8789487425021978,4.569140865099105,13.438735562281625,7.393425000009065,0.8735437620298798,6.131110885814063,3.6823847791157567,-5.6625278335778635,-3.779638694409617,-2.7406169441733215,-10.25932013397389,-5.3960864036847385,6.194446264705427,-0.19090387815594312,-11.40377188320686,-10.534031038692994,-11.914852538119474,-13.15102738093896,1.2494021081057083,11.798806268854626,4.793741451201798,4.439687833827905,13.175905403721158,10.243014771789733,5.942274309111427,9.74929155744336,2.45989582513366,-10.765176280762216,-8.014976919890355,-3.71707266706096,-11.236610991210839,-11.512151802089761,-5.451038329443706,-11.289749305607513,-15.84660837430401,-9.257384134649794,-11.972421033788839,-21.010022410887245,-14.841465698532968,-6.119495911680518,-7.911750181405143,-3.6162278006682786,3.2138452806151285,-5.302425567082967,-12.002999166864592,-3.503959181185947,-1.4554033518976743,-7.200713587628522,-2.6725578897451863,-0.7649276487712827,-10.48567206319982,-10.859698774003672,-6.165282794650291,-16.80618646122129,-25.8914363659856,-19.871673509028234,-18.87381712204643,-22.0914199503662,-13.074451361414255,-7.058168119798404,-12.603010857065742,-8.501253761222598,1.211781978852743,-3.5216630468087,-8.64240086432068,-3.0685716690306943,-5.330114784913781,-12.664815271642794,-7.676443709043268,-5.6705628809506,-17.141304708802053,-20.140500366821172,-14.239054082050629,-16.788398591517108,-14.016794637497123,0.5486846661219369,0.25209451439792385,-13.526492184999793,-16.378752380272676,-17.488046259310586,-24.4890354597488,-17.203760176107107,-2.73256402522638,-3.7115386924739635,-5.163924220674619,3.5842367186809816,1.4927013693235551,-7.191922170599061,-2.2197489709144222,1.2688158148870605,-7.580688607683436,-9.304463289303644,-6.301344455851859,-14.145214769935919,-16.932126575877398,-7.218675997105779,-8.548257875436526,-19.18360375431743,-18.48938938571289,-17.234475846626243,-23.401073519199137,-18.08003731243882,-7.105908859723483,-10.559904219814186,-13.203204838705375,-4.088239591519006,-2.8488515958172047,-6.231978701918317,2.295406568162381,4.364877951373831,-10.261732128538988,-17.648518944191245,-17.317526261625083,-25.115881516728116,-25.710856305301892,-12.83037192230962,-9.777013265266898,-12.787314661769488,-4.249107036109346,-0.6247348515944422,-9.12989820139348,-6.685304119809915,3.156535890139382,1.5269623248602475,1.2144589725256258,7.807907989901648,0.9761921258234096,-11.575166654924967,-8.253101558003786,-3.4620162185186474,-7.794111917748827,-2.901356537641132,5.789937078413249,-0.9796600982023658,-7.289198672261499,-1.330042097116913,-2.1012683286810403,-6.815212137003039,0.5306028723454208,2.2359143784272897,-10.804138029031007,-14.299495073264428,-8.276673331912859,-9.556866947258625,-4.27516087308059,11.323861311368347,11.48403569933868,1.1028088010813222,2.5785847061682103,3.0836763139746797,-4.437535535237435,0.8364470423911956,11.674685966665994,7.176884885612976,3.083060663526643,9.872625833713839,7.46487190216769,-0.2256624286150588,5.546455543854359,8.619143378304877,-1.2927346736866419,-1.8242637203657344,5.228124347134256,1.4223392076806158,0.6949437428419261,9.398078376794423,4.72874481765828,-7.582366785537575,-5.296668710893373,-1.318328342144007,-4.065822343088563,4.622824743092671,15.697696433386385,9.562993334685803,4.4324291471829795,10.550463197650387,7.84048241142925,1.17704514038611,7.127121306458499,9.917448664519673,3.6956463215286997,9.005676940095686,18.237318304398784,12.537250652388813,8.767949366244142,16.218384182874594,15.268774271475072,10.201012715955635,15.601209856057258,13.907174687122847,-1.0019194521988384,-5.850958797822507,-3.0552306803196614,-8.215315550496198,-6.6285699805534595,5.478747790967714,4.6523744633642306,-3.429624610188869,1.3545820304554552,5.5661622027056055,2.2796634658657626,8.938917220069198,15.338642318994987,4.126020875534097,-4.056187726278197,0.887691892364058,-1.3597830288303516,-6.048241126392282,1.2885006618024084,2.0126391272186384,-9.87525288161345,-10.421641223558897,-3.6349907474140712,-7.773751830610856,-8.071920586002443,1.7215728628878857,-0.008121528789449162,-7.926591805949875,-4.478295223202322,-6.1362896477260245,-20.47053375923067,-25.641218756296794,-24.67030679607785,-32.68995219555582,-32.26586999863609,-16.828639645751448,-10.858226844116652,-13.736519488332211,-11.721144408462532,-20.164750999225838,-38.793510737150896,-39.37948683708828,-27.581391915602886,-24.299667762499435,-16.374450371698543,0.46154162140918586,6.795324085341729,10.98644457722914,25.849551245720345,29.494371268250514,17.785358618901725,18.701826298929,30.85722652404999,37.09706322348432,48.02583829598393,61.233552196168525,53.16988421209162,36.722912360866665,35.008411751044044,31.835999037400015,21.065118065853706,24.041903490859042,32.88452435775332,30.645171257413605,33.46086204469405,42.26852946028558,33.409196441407246,19.000784126335674,20.89349727105628,20.925355905879805,11.376193918065539,11.734740870749764,13.492667432359518,4.803692853732999,9.465440580950606,31.330071055152864,43.581713394998516,49.28844563562147,60.18795217903057,57.0700871725404,38.92053446084271,31.779334526088967,31.053115456233982,22.582360855450467,22.12408026864654,29.059809439770774,19.667331456759666,4.090174270604005,2.2927252865487477,0.5416672573572399,-3.2035099892548002,10.498283432166911,27.79474132564061,26.978329469534636,24.11289373496372,25.977788557453596,13.764669669201762,-3.2148097596862053,-6.502231962150833,-11.21526381531764,-20.58157389066441,-12.226751664554515,3.8682465930626746,3.984947489188425,0.7930501563469997,1.5643994571587188,-12.166524500539309,-31.11316428012813,-34.85134394086781,-38.229914341801035,-47.61073710580525,-44.51870950511348,-40.1974851183399,-53.35858328217882,-63.54768310310901,-59.62604227970846,-60.25481551494134,-61.02201196924356,-49.73244128293456,-45.86889168481714,-55.737827112224615,-56.91942048163533,-52.704664406083836,-57.51355029088134,-54.91155105784302,-40.98982975179256,-40.075424524387245,-47.23506649472786,-42.85073106060326,-40.4365468013431,-46.35266808648673,-42.370518180844066,-37.61561274258332,-47.364300428047194,-49.793764447225044,-37.79330510118886,-36.570582181395224,-43.36824069680016,-41.35870818801102,-41.851951461227685,-43.37093227166693,-25.11494284779546,-3.085120030294349,-2.519609256349798,-8.179119938843215,-10.219561649959997,-22.301032584602876,-32.263021501435304,-23.657423293008158,-15.599542880949915,-15.54486848136514,-5.68503147666183,3.521051735070684,-2.4942171238557687,0.03317953174145871,18.168623411799615,26.128302146172096,26.309958035000108,32.27382427848057,29.744580763513994,22.478914660483348,34.24868914176605,49.81147033535537,47.975584550807845,49.20653879238693,61.399416883213554,64.25034106650205,61.969169325216825,61.48840493498707,45.97377538796417,27.47651085803733,38.799237189219554,67.35539679686303,84.3125442909611,92.82323081121774,92.45994570712412,75.69492818438809,65.18461834499037,74.0339245863702,74.26228202059636,57.86197717409442,48.60466835203434,43.631923928351654,31.196867888681695,27.245015988389845,31.274096753736412,22.756555592818764,14.187990469970488,19.676398936254394,16.040693463943878,0.3622844999444155,0.0823458667999426,11.656807608215132,20.242448690829853,36.436178416198025,52.03193219043906,42.63990960761414,25.59525284440455,25.770608554865888,28.30948002899462,26.850554142204416,33.818372413314144,33.97747963056895,18.296285864555543,16.24165033308274,34.319811118436625,46.593630168526175,54.81839306776736,68.0114534131588,65.71186942892274,48.11274145216926,42.74713833022895,43.42967505041099,33.94687809708806,32.43680518455698,40.86315548348791,32.60752673030168,14.59532349977634,8.223677387354112,0.48881741566000025,-13.1439786954328,-13.769803101110938,-12.532755749999302,-26.965611645645346,-37.06184631820165,-35.72619194198925,-44.260467112528985,-56.44138843751607,-57.07898467612063,-61.450881255916265,-71.9105254458644,-68.97889150493027,-62.84565876223512,-70.58043244170159,-75.04485957235386,-69.73637345679968,-74.09969634109696,-82.32269776982585,-79.6119691816614,-81.359428715231,-90.82869420138225,-87.34761767527809,-79.96542338439416,-86.86107056877492,-90.93281562968542,-85.04932884351824,-88.65571512172868,-95.61440884067969,-92.81228537364791,-98.823569809942,-116.30395973862764,-120.22913073305725,-115.3988944792095,-117.16971942826348,-108.20738828958429,-84.24181288073834,-68.6683899257389,-59.04380671755855,-45.621401791506926,-47.39419130855652,-61.93943797705867,-58.12904097463146,-39.29624967219551,-25.030353755073733,-8.011602212804291,6.600873013754937,-1.3504459392325119,-15.102455774213718,-14.460027305035844,-18.592368207358035,-31.678279824756856,-29.30169737586054,-17.020492476823264,-11.850758575331172,-2.479261386213087,7.455307461664331,-1.6323383122291952,-9.289882898241627,7.198996927555776,24.085172523858525,27.459928240555435,31.576856678641274,29.12100636764415,14.771857163307423,11.445915796196077,15.6486277801688,2.478047498016463,-12.980086007588934,-7.242814193782314,8.864371081473008,30.947535585164943,63.2203685838547,79.86293753157693,65.7061927379983,49.69180760140506,45.91020727680585,39.35099934146498,34.810367864334616,35.82466522481198,19.91050034889561,-7.689737957668077,-15.224492086905714,-8.121740030446428,-4.541846482613771,6.676710610898,20.055455346954837,12.009621178442835,-0.8924796954363856,3.678578665881743,7.069124711923944,3.6840810614724293,13.342915710052713,24.705867359645268,21.156682920310676,21.26167062418051,28.33570774799641,22.3905041818656,15.178842908803048,22.360174852860844,22.70100579632745,9.521728856141564,3.7709698079827554,0.20879529879053316,-12.549903283517882,-16.022356724837785,-8.036273938759116,-8.999315681670332,-9.6738074722625,2.5788827558222343,6.356392881970227,-3.520925197962467,-4.699995646240502,-1.7754698628233438,-7.735161460107441,-5.907514584159976,5.813846470979094,5.762240720522771,2.696401984662613,12.490126400624312,15.758412227960441,6.604606069093233,6.551497693576574,9.980811453501948,4.193178066909389,6.936964274843158,18.62445584654875,14.213741942658038,-0.277738546139636,-9.173889878213288,-26.081574738103974,-47.73956864007094,-47.51627406910086,-32.25066649490118,-19.185843625332993,3.851455921915205,32.574516302149114,43.48147074260671,49.36009657928304,66.90446833586509,75.2271656154211,69.15026527807512,69.32056406937713,68.67787626854545,57.04585950670767,54.0893152825396,59.20065145215829,51.42862719166196,44.889148739513814,54.18432897678151,55.51917308303992,43.5786792836774,40.28880551744289,42.33560103676477,45.67286300931021,67.59601421047452,93.83867039329306,91.62978374994545,73.31665757681087,62.88271310994546,53.44979775619804,48.848335826673306,61.709664276420014,70.04121905406731,58.217844060102195,48.58390092148133,45.01732536836503,31.9433334808843,24.756037349209834,34.858284905096255,38.646290531824285,32.73799388871701,36.58317550648455,40.745482466989785,35.646811219853916,41.23109640210278,54.587108761047475,52.50550585323179,47.98076577721734,55.384837638993034,52.76468923430786,35.91275276907866,23.900768204262835,9.105127684982975,-13.470865589618588,-19.68333751913892,-11.130668562653051,-11.996015800384496,-12.697274800248385,-1.7260486163741726,0.3421222975047573,-7.072277999702319,-3.566029849597756,-1.3266135978848976,-13.673792080906026,-19.59801896422801,-15.637092500176141,-20.39680951653226,-22.514761628012586,-10.631493877415714,-8.24663510807827,-19.605768095500625,-21.59735975014415,-20.14734416973139,-28.054884871065664,-27.764252670092436,-18.431616903258654,-21.645837617716325,-27.127004631365452,-20.03675609067896,-20.00098654933031,-30.578080782520402,-30.780698247552543,-29.66963753655622,-40.86617310723549,-44.458428269026655,-37.194809966030576,-40.29216037996726,-44.509947318195955,-35.95867123647381,-34.324238906431674,-42.89516250413709,-41.03526669988729,-37.64653303958677,-45.12818180159458,-43.79670503618458,-31.52974204136094,-29.753252929678823,-30.552273454985183,-21.841321935835047,-22.84102389630985,-36.11908168926306,-41.518378667932005,-47.547610016121894,-64.56464545760107,-70.34286493551383,-62.23252919942482,-62.762385818437636,-63.798181663874466,-53.02556071984064,-48.563464447884606,-47.797648878636544,-27.653205508849194,-2.3574842701074985,8.166667789774447,17.655538368032385,24.85091832897484,13.141371993123185,0.6943232219559801,2.6646803926816696,-2.6704346408125366,-16.291549318042645,-15.00360446662094,-4.961107308168482,6.094282977975901,33.17013484468806,62.649957362603715,65.62169225814141,55.74487211786992,51.368763053272126,39.90851677459371,25.82503753434232,24.952685230530918,18.80508739352721,-2.648232454982442,-13.366122014888624,-12.428569622667913,-20.71605376330352,-24.454311825705453,-11.804608467097049,-5.143139254223024,-5.2421881086751965,4.465273626056199,6.356972681899366,-9.452316270891858,-16.208000995278628,-12.617317001149608,-19.014588957283916,-21.94312118957665,-9.707254574577831,-1.338743712490225,4.3446153441746915,20.531583251496684,26.539027801107082,12.337190219425487,5.294063666687919,8.343482009566507,2.1775856385686567,-3.8439216132695817,-5.330784243595113,-21.85767179389352,-40.72804840853001,-31.82221166942226,-7.109856980510099,12.860901714246364,32.50243849803393,39.506047687915604,17.35107273840559,-7.197080073827802,-11.714518544999319,-15.613028807004643,-23.693997554273604,-21.73074782521949,-22.745485453246573,-33.74951034261389,-32.51161049429708,-21.59568783346551,-20.152988911618426,-14.186163617494255,4.349052159611429,10.494820994863602,3.2622972519775444,3.6823974499355945,3.489618200413826,-4.806244101326195,-2.6661133230004324,4.761619328923985,-3.748358029982378,-13.753345347372488,-11.629391554049452,-17.91615514286345,-32.83622258804767,-34.57932662631208,-33.036376391264824,-40.056203740377725,-38.08631604101899,-29.91830927995472,-35.56883892708903,-40.80934699638077,-32.10798013029552,-29.854955342218677,-36.01060862164597,-33.11069060767482,-33.72133714735156,-46.5264903217553,-46.572320606942576,-31.707609183626875,-23.825267944156636,-15.90600932305524,-2.2967423021149056,-4.931577219167885,-18.752911133402957,-18.601052692109196,-16.410481817018024,-27.25978374987084,-34.582346059414895,-37.96590380681278,-49.994435277279166,-51.13114375126717,-29.7553963187802,-11.347441950792284,-2.366769589828234,11.203019335797206,17.54816974151177,11.487162393051381,16.555737926628794,30.650054956053232,34.085899718925,40.03193862127169,56.00145078168779,60.12332822915629,57.997584920432004,70.15866364265909,80.25000859595256,77.31320571053396,79.31478023225489,79.07277875039932,61.01399768403813,48.59522784884766,54.26501101964762,53.58614678106332,45.19726069770124,43.62388477555784,34.153880367036535,13.803570226205508,8.51139872480982,14.896324877912193,12.442300279108908,11.745841897902585,17.272304846837287,10.05899611724515,-0.4242385902699768,7.174940002661266,18.39654145779025,22.851278713899063,35.32886137616655,45.875062885350054,37.07883719067836,29.069986309380575,32.206229339343935,24.723495350679762,10.901466828472177,10.115102682601139,8.359878940354859,-0.7699529689297844,3.7519846463711026,12.429894461869313,1.3780023387807327,-12.364471844274355,-13.263175036729649,-16.850484857386768,-17.576126292175026,0.4773541605470122,16.1069640131208,14.44948763708792,13.967028032530505,12.29708803573794,-5.6630370489472,-21.010676988429914,-21.68950436475326,-28.45405654465531,-39.70663372330984,-36.77514151509341,-33.079831121181954,-38.61385720281107,-34.14079823449648,-23.496396479941705,-25.72514349516723,-25.109666066816583,-10.319957817864566,-4.680417681623925,-11.03393053728721,-12.115474048203012,-18.745639645776418,-35.89689505222619,-38.215749948167414,-25.349979239735298,-17.73769857087676,-6.293262118709829,13.921589296876439,18.122335592400596,6.281019408685518,0.7248208103736191,-4.626198211806711,-15.69599388687365,-14.271636333949049,-6.97383289409815,-16.04630921633912,-26.426421837537184,-21.926322440141874,-20.782323152523478,-25.91162288080789,-21.86531562661316,-20.335645444755148,-27.444012675348098,-18.35899425987766,4.106203320930109,11.266699860342237,8.400888819652657,6.647991096726076,-8.17458845609534,-26.53041456906762,-25.223096180692878,-21.339867015059696,-30.444286776673778,-32.423596762120155,-25.749874385354392,-25.346416813481184,-18.46739239879136,-3.2028591955717167,-5.455210057184541,-18.34333723796879,-14.05355159541823,-1.0727702587989438,8.160697335713063,24.24116477895981,36.748434730660485,29.75778574225162,25.57798039276791,36.614588327643446,40.42370988407522,39.21419176374224,51.9856293020223,63.19590036904697,61.35264375445241,65.17816635270847,70.94302172844888,64.28470708168481,64.62185878139836,76.44580493985451,70.21547568901673,48.82268097931923,36.5942264591376,25.507481053426563,14.051803149097747,24.544269211444142,45.001563066877026,50.1019836957497,53.1375026679238,58.25837400138249,43.49966647616515,20.579376280343915,11.705563204212698,0.6676686769609588,-16.376463283081478,-13.413510631248213,3.4122596438896666,11.592528076592327,21.153612816090895,33.57993156156932,27.96159410195075,15.892784411399147,18.19638832114659,16.29113935930591,0.05205475037779195,-8.436933977155133,-10.143003004712225,-21.337528099043723,-29.680890578894232,-30.552424139431622,-43.66640444552342,-58.67322301352291,-51.255020208433066,-36.967226559884246,-32.5377768669057,-26.838344641083115,-26.793215940063334,-45.207625588605026,-58.48294748728555,-53.166696353641925,-51.59681128036902,-54.22570172775718,-44.798275201969375,-37.88597854454605,-42.301539762049316,-38.41833909463594,-30.799190540711688,-36.80507014301771,-38.52326030650032,-26.115426293355956,-24.574912356396545,-35.5477998344288,-39.832971861973334,-45.598973607028654,-56.32078506717704,-49.35941441779419,-30.268144057650673,-25.47268484104263,-26.130182654997974,-20.337902093187488,-25.59887599912291,-38.22057715272106,-36.9298940628461,-34.70388439344656,-42.24437636855932,-37.217995656164746,-20.53008731455394,-14.792562154187651,-11.048888310227037,-1.0378812218872469,-5.53020838700251,-21.5406214024257,-26.502758512150145,-30.41829162840568,-41.93671841365797,-39.18476790375194,-24.29388204391126,-21.298699121045765,-22.895247981658418,-20.765433651934558,-31.98067162493207,-48.97465599587955,-48.954469198836186,-46.18635252409102,-55.41396907441887,-60.52173458196211,-63.925993357566625,-81.38121314465928,-94.11959248780579,-86.95007619788875,-76.93480491509287,-61.909594333822376,-30.46543730194505,-8.331750827631215,-10.329252548281604,-12.639655685986256,-10.657923946568598,-13.639144197633467,-4.747386934601958,16.85150222724728,23.398515056000875,18.811769970578062,24.13413963653666,28.611658033644495,28.00381337525343,41.42189081758522,59.25533265825707,61.62366550918516,64.88926785079055,77.55285383818612,79.61774963727797,74.88886678798247,76.68196341247722,69.20501393952541,52.256956096163236,51.654599139622945,61.00899838739267,60.1832169444384,63.60697760850753,79.32643170953868,87.91039094866127,92.37169062166492,103.56740048464586,101.62712339370012,84.65103582505226,81.80866196540381,89.66686714267749,88.60001746762369,93.71761553533929,111.29487522738538,117.4385900600097,113.43045649307757,113.77073286670665,105.15407054075368,89.27843012346852,92.69904959383788,105.66227615734672,103.35061837938522,100.53363946096697,107.14949272888181,103.36880147075824,93.47854351674886,93.62141399363837,89.00858094222917,76.34310907910265,78.23423053504732,85.6863545315219,76.12788920932262,65.7167404135285,67.0975301945243,62.46797499886995,54.39254773573475,56.54581766915221,52.25465486244872,35.826286774817255,30.356019471058925,31.949518607849992,22.670115399944475,17.178778777961526,21.330386719744588,12.650334494092766,-4.421528656721724,-11.007818990803523,-20.024182269766268,-37.46010048711318,-42.688503413819234,-40.81080501642907,-50.580914498638364,-55.53869007341823,-43.202886883350374,-34.11898094589146,-30.116585196314077,-17.164740550738617,-11.23141182906237,-22.009393329272086,-26.79809113961386,-25.175862851886485,-35.30109291812154,-43.938012343989065,-41.45102584552683,-48.332885275285065,-63.111389937720816,-68.97431419914878,-79.16651319077928,-96.95653642194405,-95.1015650894442,-75.54870276561823,-61.78861288476354,-49.712444186355256,-40.20660573376065,-52.39072183527003,-71.89052206478269,-72.04174436773098,-64.88839540326245,-60.763511288881226,-45.10115284286043,-27.004876686625103,-25.019142087374025,-24.59990294543343,-19.336752692339033,-26.75630457934871,-35.57343638018202,-25.81909392666694,-15.997913153434975,-19.21195934953213,-21.31821836087763,-27.189541446830287,-43.835164955274784,-46.65699636961076,-29.00796283452471,-16.687752143468593,-11.21223942901515,-1.2244433052279788,-1.7040271956532231,-14.509855875240492,-17.65454196455866,-18.03174880989964,-30.58310409583875,-37.05172536437638,-32.8448058641505,-39.590235857283034,-50.448907607187046,-50.1888120736661,-55.42955703052292,-68.637949551259,-65.36300781034944,-48.82622736061366,-34.205936493943696,-10.405797565057387,17.80863080489354,22.06136251724408,9.001812148592695,1.9226177807129197,-7.8986230585054535,-22.908033980846678,-22.78843821484794,-13.809659311027401,-11.920411543651607,-3.912366009830679,10.227939488350767,6.758774977315745,-5.839841155530828,-4.410249906471488,-0.6780605206212686,-5.423772027169182,-6.175595683257143,-8.162895632275244,-17.822480349626215,-9.958171132696346,21.17167042260497,44.22737178791174,52.35451641534344,60.53099983703149,62.35782716245298,56.826043332899616,59.72363754693943,60.506927796061625,42.128754211437986,23.268081401344855,16.395517440598258,3.6643757728225475,-13.763145932248369,-20.31334611063306,-27.199593827980202,-40.82170442834976,-44.35468833827818,-43.91101574467106,-55.88951113849832,-63.761146279367985,-57.71570872500193,-58.34292870360228,-65.24301479698939,-63.165228720958815,-65.66197716836126,-78.98812411325778,-81.33224631721001,-75.29728366755036,-78.6399857447448,-78.58953013746138,-68.57776704094731,-67.36567770216755,-69.29845246966804,-59.55113827532774,-56.992609684689356,-70.8951199327846,-79.09812969738243,-79.3271772947484,-82.46784478140142,-75.76880156102976,-59.53168307436108,-58.14751361790929,-65.96915763575885,-62.288383771367776,-58.55555600709532,-62.84642084347004,-60.33477858038514,-57.812738754057236,-67.44725802147373,-68.99953207204562,-55.58041904314594,-49.58776542423542,-45.1418576139216,-22.595638926316575,2.754392521258617,19.0427920238994,36.54383877291076,41.74503360372931,22.388591501322352,8.148968338604995,13.251834682634609,14.12172408817654,9.625128181567849,12.124314100407556,8.26983935349497,-2.4560990141934624,-0.24651762209447492,5.008549032032796,-1.2957809397287732,2.491111155687118,25.274194519366823,44.17724319769023,56.537593138928514,68.4298360689121,62.64361341037046,42.448448501180266,36.603140227761266,40.58264528238227,35.41828905070845,33.4129685029827,39.48573195558579,36.43794052463395,32.51146128428181,42.40852618803378,48.63963668525931,45.435584098218065,52.23267070274153,61.530952830703356,56.54109042703138,52.226991276273175,55.26974332067915,50.24340993756995,45.712151897412234,54.98084760221662,59.37686655615845,52.52383941430684,54.29379230350746,59.414563327706354,53.62712814614123,51.83988114487155,57.00269662597523,49.442027311140905,37.59364507757452,39.57728793680518,40.565630574655884,31.502919671527174,28.50007949105181,26.555017794104685,12.342324382760658,3.969966905697704,8.459059577132031,2.112655041101451,-12.440930018864405,-14.89353446344289,-16.4737209583391,-23.980408211210413,-17.86114867995223,-3.763891122008138,-0.28670070544134685,6.308525319419867,21.44654017116703,22.437303087749726,12.818548656907257,11.925719329200078,8.28308166321431,-5.376614117611122,-10.654878541017048,-10.02566756575346,-17.131583486108113,-16.131580664010944,1.2954522604804062,13.497581873252757,18.121818530790488,29.037032369709053,34.012801626802094,25.287057610256383,22.540540918290567,25.80868043676205,18.64958832272162,12.87897734442969,18.412095244327894,17.682009136845664,13.46781219956717,24.04398510845034,34.75215873077442,32.3379044350517,33.09438229258854,34.00358222832271,20.70938988205642,11.438307301957419,16.263767678382838,16.70046587668554,17.748697567353286,32.945045796626964,44.09379450759686,44.53300721656002,54.11763035454099,70.00251288017857,76.16080625610115,75.68077107796131,64.15339380889873,28.215595075373727,-11.575379772443581,-25.655741615874263,-24.02260356914316,-21.379065575543326,-12.324363777080976,-5.416309879405972,-7.265546199388393,3.1495517575765914,28.28139914980804,46.89703331845851,67.03565704791696,99.76707799549058,119.57007786846181,114.86563455416805,101.43879250907577,75.38251683816206,37.534356029462316,16.473293046031685,12.172432774971556,37.29355138321755,24.794774362922794,52.714678260464446,30.19725766904706,-5.862370446947159,14.223144499551477,12.257246590037006,-30.794096064579243,-21.0324089548919,6.828178005299936,-17.963917695682653,-20.069284888839125,17.353487626527276,0.9347155097517952,-32.42121403760695,-11.583271698859845,-14.65645226938298,-61.07433304101557,-56.180492153525336,-33.822171009839195,-62.62209838381503,-64.42307327837796,-23.31241098749807,-34.38908996017063,-58.669749051565056,-24.252102336929156,-12.176104105912934,-45.44641046784423,-34.380219265296276,-15.593159644815286,-53.274339547260965,-63.138189566061506,-27.0234605072358,-41.19609664177194,-70.47909913636298,-45.23237350483931,-42.46559009504298,-78.98117488133242,-62.774191363319346,-31.444352894798513,-53.40546480760283,-50.736964658652724,-5.997896888076658,-11.049107415052786,-31.88237188831581,-5.602287031503245,-12.986786563422044,-66.20435506734312,-58.30995194711066,-13.380774439357623,-5.144807631069044,22.82680558534872,68.38170177280941,39.14287954482727,-9.398423088445808,8.836613654036867,15.933607881001912,-19.969483520680946,-18.31120403733017,-11.19645225011001,-53.27984835632946,-59.8498874796678,-12.99307196942287,-4.283793636528017,-3.413664578773164,45.08146280452818,56.034290278449205,10.564743919265624,4.684022839175725,14.964995436115487,-17.002202277257247,-18.9107176217437,17.50414985649139,-0.16023733728587608,-31.853002374131417,-7.647066066367065,-4.3296863407667985,-38.7219002780071,-17.81526984764763,22.005375293501285,7.881786235511826,11.607883559334944,50.736592111634366,37.724480882631525,12.189309736332504,44.05025070920874,54.1580403901357,18.87222223578019,28.395147747284017,51.9205100269547,21.655542469343075,9.489406447633435,33.45152550067176,4.610603139137808,-43.21610378166296,-38.68384585126876,-49.60082307581526,-93.72558937911867,-83.97611621449968,-54.14564458588019,-75.50621581109846,-80.04797961951294,-46.671377356272686,-58.23469389824708,-81.57285146058683,-51.30860536511949,-39.79816898864739,-67.46592236993791,-50.09549821796426,-21.126535524949794,-49.024550697188616,-67.23950050183771,-54.1967522001365,-81.4611821628439,-107.13056956459096,-72.37001554113914,-60.64768498037632,-99.29932606052657,-105.34752780487162,-98.65622623107184,-126.41403523890791,-119.04703366050715,-72.26375437215515,-75.60032778561057,-94.96032947678225,-66.09448433652506,-57.32028180475197,-84.65949613511077,-69.14741454752158,-43.85195381109275,-59.726862973836624,-41.10122240698878,16.831308276535946,21.735962992193475,6.750199412547485,31.76467096787362,30.233745424838713,-0.5420579125844576,21.3708897291789,48.62551435440701,22.017100747441923,21.547314325801448,56.81811749954984,43.67363101018451,26.17589802927921,61.552412658067055,71.10731806055979,47.62757062452966,73.0062262415185,98.77596101702133,68.6384211496335,67.70046831094099,106.07258420027505,95.21782078636518,74.78515910438969,101.43050093335361,99.30328443376973,66.68850097054657,91.68334773284214,124.89533741671109,99.3917912334191,91.30376618893817,112.32940587845691,81.30574077847979,45.05166782797367,64.48960951709752,59.46677489405391,17.171396476466626,22.877503859908142,36.52074522570602,-1.88593102004576,-14.332940496999637,15.764645966565926,7.114965629455809,-4.258618347327777,35.25873388651601,44.62324109564028,6.343039720641711,4.752801312994614,9.289902039593798,-34.56532526070788,-51.93136564631551,-29.17179397763221,-51.73905405749657,-87.53396181897035,-76.84908495621079,-86.57772201030443,-122.42704504220343,-96.27715545405103,-46.41830806939463,-45.56825897641569,-35.31897479712662,-3.8403271415879985,-23.932742654596247,-48.05564007529507,-11.700945367698495,6.778777470223105,-17.26366018740549,-6.618438862062289,7.136733943757198,-27.365302076184427,-34.17116380884029,-0.8355277980713876,-8.234830128711149,-18.31700452003828,24.234287276457273,41.42990609249911,16.490407953268093,28.571416964280605,45.986269843677825,21.237384575056943,27.65062285989087,67.07958394813149,52.857269377797664,24.749200982780792,41.55728826887797,32.87168203477978,-6.703128848872355,2.188459094530815,15.471062212947908,-17.408919455834777,-16.09221369446626,21.648292194669935,9.192751349739499,-9.886115853754935,18.239347532011557,16.75739292728155,-14.350160089104183,8.323116996314765,34.29677306335483,9.603478005580332,16.510740801551542,55.32837726820585,39.37624586833114,15.820501631289453,34.254770182921575,14.098560034944741,-34.22624448058458,-17.08367157468667,13.06711971549591,-4.755736721434028,2.748453779013448,30.75650664308028,0.44431377035692776,-27.61727064138818,2.3781158996525384,2.725746815049048,-34.84203705398521,-27.35160822660719,-17.117000240065504,-48.92028382872643,-39.18053902925722,9.126986268380222,3.4640800087036396,-15.694078711040412,5.529180586864616,-4.522016851551355,-42.40268913972369,-25.365033648404193,-2.3716391249023667,-29.10430019266366,-27.296229114464037,11.660879139832618,9.951618796695495,8.039633778942239,51.946100121657736,60.381241014428696,23.959835193822425,25.84995656452168,35.93359848758759,8.572628325564748,14.3266595696114,52.02092684594484,35.62528710619384,4.643157890762081,19.1248260001187,13.573318835384654,-17.705852083774083,-0.03072963607142043,21.906314127642364,-5.389085553301406,-7.18009723369006,22.319836398772928,2.987861282865534,-21.715989984776904,1.9878085088303354,-3.0290891980881245,-42.91840937438298,-34.719419363411056,-18.418040068406075,-44.50480272114824,-36.17685199693456,7.6493297892303005,-0.11585767753672194,-19.65144040978379,2.1784002012122894,-5.746722989390496,-39.316738705063194,-14.041179980993576,19.33244434424052,-4.414753343088549,-17.31472836072342,-10.260618599340257,-47.40852944933493,-73.31666061783567,-39.88146252202481,-34.60547969076402,-67.91256011060804,-57.183307527134076,-39.61056394963076,-64.91486661493862,-61.04800178470168,-26.989907617610825,-40.10717338001394,-52.97421579503976,-15.74883466356501,-9.988029715716397,-42.174208138144024,-28.637210555319854,-5.7417218718647955,-22.2746115957817,-8.405206406385826,32.65729312568022,21.289485222449596,5.279351280680297,37.236682901720144,39.58059989474593,5.746548990489023,12.564567788979229,19.11921512251436,-16.697297330471464,-16.171013595509,17.628667039660826,1.3926696710448159,-20.430602397488475,2.788585471332709,-0.17740175444253836,-26.794732825164473,-3.439038158981006,17.513702068754757,-11.557846864201077,-9.11822329965154,27.03874608976459,16.4905864919208,2.833549818342668,32.23890584229257,29.215430715243095,-0.5875651296781363,23.49697594016236,48.0260133854141,17.492954486100274,10.021192351920904,31.14413475408895,6.417309518018053,-14.487483876605609,16.06950329269194,15.323920746601397,-20.851899132130736,-12.56425057559629,-4.377824802046529,-43.84908346780312,-51.657488640689245,-25.23940138366386,-45.65936330990962,-69.71018327977035,-44.315519688023954,-37.981705050443495,-49.28724054004458,-3.85617614977318,42.28330473079288,25.806730633219924,20.04098514423188,39.13453277605688,16.217052014618872,-1.8658990535519608,28.575817758918866,24.237771604613762,-17.102076000276483,-9.630277027570735,7.513328365158977,-14.946813629445764,-4.160957003526915,37.684755596971385,30.491512046840775,19.50882334510915,51.17847241226887,46.73839831160322,7.406998177340142,16.341044864352366,30.944960407807407,3.0866402876470165,6.1026442304214,36.60512645840474,16.720600897521248,-4.3717595553681585,22.304215613384613,20.199481156950625,-10.206177243012865,8.118993008780775,27.052360559699792,-1.0134663998580162,0.23478691251218908,28.772860474461858,8.519396643919515,-10.304685873412158,16.861341289790065,8.328338468929852,-32.66819225655538,-21.420453021373742,-0.5422025715342196,-15.339660061732006,4.699963357732788,42.67096272366721,15.916764458302497,-14.661875015480861,9.307518675733162,12.16182511289232,-8.946602133289533,11.890065564060567,19.09337900167265,-24.363113167177453,-28.75523934911358,5.0721088715302045,-3.510690204697312,-10.75424929751611,22.52775332699789,19.26453317809453,-11.790569368925665,6.372731420230794,22.194479955977837,-8.635497169528689,-8.757959023138763,17.77910330631756,-2.1248391996672726,-16.479671919197184,16.518075034547106,17.438731780049316,-8.567075535794356,13.427215563901008,31.19413067940978,1.499054252051197,4.184090053141232,34.92424391806557,17.957999167426102,4.9809314447223745,37.041015095499894,31.98631865444665,-3.6446467753392913,8.866236421880547,19.194766715347257,-12.81652236751212,-5.89843715981587,30.450692534755,14.35746789953933,-3.4828256431479017,22.09935812519305,15.072131957001108,-15.110487737400089,7.223477770175647,24.97596641724467,-6.516541073214874,-3.7997299907687703,29.771570825464565,15.813479036001024,3.056710009961545,32.054863629493894,23.474762884144724,-12.8493441533311,2.7607252348721047,17.3028541322208,-13.781037923885926,-11.21495284660768,17.109811848381028,-6.558412322643527,-27.17500142928761,1.6821173747408302,1.6301405861730416,-22.04434378185652,2.3479997430126307,17.388935369967214,-18.14881597819172,-18.67295215426015,12.273736545981988,-3.4630852376552888,-17.238587231195154,11.058121653140423,3.5019932602487067,-29.793476454968495,-12.455405609800248,1.2186876591898836,-30.950483909382775,-28.302295005469205,3.022489649278727,-11.770203807594253,-20.239152595895945,16.48695921230597,17.261942251678228,-10.216355122325275,7.1752757957185285,14.014804380041399,-27.14779220854991,-29.96079737352634,1.370346070038977,-7.262387959194866,-5.2603939660981265,38.13537781772331,35.18356727452826,-2.334873408819522,8.865235704637987,20.943885706491784,-2.7192187182306693,15.42835538272615,56.45121750063126,37.98441824029923,15.636781391072319,32.86130307628553,12.902659832598783,-29.555054743815518,-16.795696032025194,-5.1991324929415,-37.25376627294828,-35.006889885489315,-9.541574783914458,-34.400198441656514,-51.726034892862096,-20.85806611729891,-23.910781549050352,-53.94315713989193,-38.222911870391385,-30.43717773745101,-65.43234649240945,-59.19162114564362,-22.24463353281275,-32.70424886762751,-39.506021952576276,-6.253106553800453,-11.882740619671225,-41.038857435702276,-17.10552614487721,1.5686067111720865,-27.18428235555882,-23.836969127468464,2.5654045147625233,-18.480556783361173,-29.8370444570171,3.913721494612462,-0.6131384467620968,-32.06317614751502,-13.89260012655642,1.1384510583283483,-24.67881745765733,-14.353930235035042,17.38545003872907,-2.827174699806074,-16.297505535457553,15.926551959446451,12.869197463851606,-14.948649049408184,4.101018848854151,14.04609936711335,-18.531566192240295,-11.560989130413708,20.416159642100336,3.3301006765778673,-6.488023263911125,25.36014115501549,18.438135800154868,-11.915341977908046,7.785175291136918,21.05070630136432,-7.017713104217526,2.8364945908653336,35.17687072052722,16.868536445453024,4.559781243269349,33.43304253309454,23.684053694692764,-10.30257258057186,4.711451708989509,13.721870648309752,-18.0858223604859,-13.053003432714982,14.65696516730255,-3.878586299157382,-10.960497271519822,25.551783842143934,24.897304114795766,3.1792158801545085,32.51812647364286,54.714984706845065,32.33852537330426,37.72373759909114,53.82483742223527,21.238390669472867,9.022498135642119,48.342906598445225,50.189323220685026,22.569429034043054,35.69083663606198,40.25581808279705,8.423257792972121,13.396917293793642,34.832685105109896,9.357095098273582,4.002827280707104,52.35144654221248,63.64347543260335,37.80807273952374,43.254450561438404,37.50624300867722,1.2319508716737868,13.47939176953162,48.93875373374652,29.659609906346287,16.288914528971198,50.07089660135857,51.26851102093041,25.65474644156697,36.05753447948161,27.07936270472253,-24.035541682449306,-27.252826987314357,3.7984285906457345,-8.76367260660156,-13.897507592376334,21.29333003258428,18.073613890165515,-8.10605108990702,15.35468220749412,31.794043026047582,5.659902743305773,15.713897785476474,46.68000846480128,24.07815602807831,3.3238246232849447,22.457546732036793,4.665924209792861,-36.51004861519414,-27.342258370205293,-20.70880123277047,-52.53703523854283,-46.60926867338252,-17.849219547782305,-41.0513033281063,-62.75546271260547,-41.75615402834558,-50.23598633430805,-78.1047975111768,-57.37525845582529,-42.29274918272606,-70.14398000940355,-62.76503090977695,-26.369633157078155,-32.258927874437845,-35.351526142150824,-4.628697253479,-16.253822487757827,-58.18552899515738,-52.603030616822366,-40.38157956436593,-58.3831984498459,-40.57560409887467,-0.7354807085346913,-12.495223227055202,-29.022136669702462,-5.606508028637101,-6.29908371220559,-27.21258372655005,-6.953173128355019,7.512946966669785,-19.967089108106492,-21.015784423585075,0.2945306149597755,-19.406811484382096,-37.61081876639246,-19.853574330749495,-27.96200267646885,-50.003747563886854,-24.395868900968676,-0.6357064769315155,-15.619488145769768,-7.152203227434505,13.736852909902185,-11.533873918888167,-31.500704050396326,-11.493732734387429,-18.687828671028946,-45.784749579426915,-31.662215729377294,-20.310994223701933,-42.8666249436148,-35.60960219702293,-9.332799653658668,-24.351997458477666,-33.9997654555415,-4.9336618629083056,-1.8118530748129325,-18.47511418320226,3.221949212732598,19.39842473063261,-1.417053944326554,3.212682161402861,23.627582348217405,2.1943607206431572,-10.980075586565036,19.104956370546354,25.35930043039447,11.917193245948244,36.02937767568661,50.97094304607906,25.449712654346143,26.944659038873066,48.7743320901318,32.67993901473005,26.155165237443732,59.503103747755695,62.538960725490966,40.57721868302871,54.767521209661275,62.882544565673264,34.93900697194978,35.03786201311928,51.91193267478515,23.894599581638325,-1.4858742722047111,12.320615381509402,3.968570247255508,-17.40250427332345,5.748408517401952,24.522194352058595,4.057347188809226,6.122337391899931,21.144859450840332,-6.614988634407265,-28.002351595573405,-11.700652835694019,-22.36547639431614,-52.26475593774919,-46.82884101481407,-52.25064724168956,-93.68152992628954,-102.53245847799326,-87.5158631929125,-107.0512830203604,-118.75732936352703,-99.93150512321343,-117.51880343918137,-155.24013333840966,-147.62928506817516,-134.89555893335333,-138.7632593696162,-96.78367786671713,-36.24726451026351,-24.479560979868257,-11.965970846889727,27.88328783137517,30.92331274284257,19.919146796784283,52.6935682811666,73.99067143026974,62.600067397534914,87.96569758787193,126.94269025468556,121.99994446441211,129.27499942424535,169.66756898928085,170.83484828830188,147.74782218849413,154.1689902147485,143.24232686784342,102.11047784772575,98.28288494180347,109.51060000060131,79.42668540072333,56.4972207304599,63.46201764494484,41.20376520987678,4.146928687765861,-1.144295779778811,-16.830435935915336,-55.06228614926194,-55.955339283768595,-38.65102233842198,-56.028587514391006,-70.70030506929774,-65.33104415039179,-89.83661824770273,-124.5653039035014,-122.53093993858617,-122.45767317053709,-140.75130922064372,-128.95140173341792,-106.71019724948977,-117.04414069088129,-115.4627971959958,-80.73778306874831,-60.86016716804455,-42.422055006092755,8.563900315284148,45.238258150310706,52.2364950284079,80.19882712992168,110.09128841221725,102.32268758296576,101.53324792946626,122.56871545724627,115.92090606107061,98.05538774957188,103.256727126041,90.09669801642022,54.71652162764616,54.946280455585395,73.52120330821134,63.1816160933038,50.126177165213,39.61272446509422,-9.83739879514518,-67.88609571305597,-84.01145210858456,-89.56344648584748,-99.9124143516994,-75.81636512096274,-35.8530373392499,-18.72705439194729,6.641605626159191,49.57376449505026,65.72709235070386,68.07700957464257,92.6658690976967,108.59924073353005,100.45208360048396,103.47781206043683,106.80255067313962,86.35379455604114,80.98143928768616,105.24504396381509,117.76212645030441,123.62278315821618,149.56190337824205,170.80900014786047,183.31456006798777,215.16188023399295,235.56781414549772,210.03948166966833,178.1782505647153,163.46944750094738,141.32460948188108,121.071203906264,110.35286672173052,69.97460184708159,8.415308207113824,-18.027506883057086,-18.14354618190243,-27.481654271263167,-30.745774655038154,-29.17932525787699,-50.607788228696144,-69.59241447996536,-59.58327691319272,-54.04071162409536,-59.8863195960615,-45.1111188908564,-26.844272141646748,-27.080481583836495,-11.933938465687651,27.220749477245427,57.64363554856645,82.17263045087452,104.14018881397502,91.62782623313176,58.148445254122564,51.72456804143661,60.0721220318659,52.847288789246136,44.00727348206934,33.762224443786394,5.840772900079482,-16.475284436100523,-23.833842561799464,-56.14892334275781,-118.82939528737768,-180.06471189716615,-245.4743598259152,-320.039241290124,-369.0568854712649,-388.62877714310946,-404.3707466966945,-400.4732887635165,-362.96769156268954,-327.11557724957254,-306.3737232574316,-282.83788872659625,-276.51835754532385,-303.1308931400593,-322.70895905366984,-315.2053526732012,-298.12491583158896,-257.66230347947265,-182.82701323364205,-109.57433023034892,-51.45867905692339,8.546495568383527,47.47029002571139,40.46901700055567,12.932190048496313,-20.611233708087642,-62.15954708784064,-78.7691851641689,-64.98017182060195,-72.66113883323794,-107.28790136480701,-125.62437932073557,-120.73774577072828,-94.1698273678836,-35.985614998163214,16.052500336823854,15.57675930426791,-11.526115923776214,-27.429270345123914,-49.11566297776174,-82.31433358102171,-98.92174188676739,-103.99983627611991,-112.32886811137149,-100.10241995930907,-63.28727255250286,-34.27506900481141,-13.87955456783681,11.217622359078055,21.779799477406723,14.77015647531623,14.797341500746938,16.806254899371634,13.264437299695626,34.58161780225212,91.03025987725742,154.77879204782207,215.39464142712526,267.80573934308313,289.2009929261226,290.08977115220165,305.4916815541129,321.0811105827522,306.0761872442587,279.81787893985506,263.2189555621379,245.53401769662685,231.8340954271598,229.12162046111405,213.07839282740287,179.68994638210717,159.48821756855946,157.79994636766793,165.51643460478027,195.37062623026455,239.6458163985456,262.55982028920084,257.42586697551206,238.89137536945137,207.21817953888325,173.73407692670926,161.58848674649678,161.3318911084326,152.40158265466607,146.48224111667818,151.54667482967025,149.20797137489888,143.1047493567226,149.78554303167917,148.62313541070026,123.94659536051859,98.98072023120687,80.16052206153508,56.503561628778144,42.366434643805434,39.32345252515632,19.551404739299635,-12.449241371623398,-32.06274913787053,-50.831008721468145,-77.9718547402606,-94.14808431543321,-103.42875045144743,-121.35272770601094,-131.58343927445026,-128.13467056732767,-128.49467533269754,-118.96440415072487,-82.2135143825211,-46.771662265355225,-33.67168574202506,-28.03648896704793,-25.971970741374097,-25.429917450039497,-5.821755634920679,20.100240982957896,10.390250333923298,-31.561155375335716,-70.84673690885975,-94.70659621624223,-93.97051714607497,-61.64457501022943,-27.300764486128763,-20.016181130178634,-26.951436312071856,-38.785560444383044,-66.4000073379556,-95.70443447048767,-105.80241506745479,-108.68010441571967,-112.38808466081731,-106.44836364799407,-101.6885617317545,-107.76694162579737,-104.07329192015776,-90.44993639036309,-93.34674156987118,-107.53201108312666,-112.88310486386358,-114.83589661929632,-114.13685946873335,-105.52723696287016,-111.18024200779224,-138.13257415277198,-146.226223777485,-110.75015871355032,-48.30174812343439,22.962417679773395,78.29221712230111,82.99493062526442,46.51230839199905,14.199869986528139,-2.784845028042289,-15.71191354187956,-19.93914711430167,-24.0751691946971,-44.54164113324529,-62.76230505383964,-62.779443913906306,-64.73979826939983,-70.75749024194425,-61.12352593435825,-45.85293850901689,-36.82175428492611,-20.034942676871143,-1.6460765859994018,0.47822408769719704,4.253578637600995,24.533837592301047,40.405362777117276,45.302696381857416,50.380807388711375,41.88838181604491,11.994977139074319,-15.008659500625763,-35.42099944291708,-72.06040239144006,-122.00912803428645,-165.19787836746684,-181.32039751071403,-129.36609735086134,9.563939439912488,176.28231131688628,287.6712952801036,309.6970855732073,249.86069580169863,143.10085570483437,45.04200501504381,-20.239890774100644,-71.41292794048522,-104.77252911731328,-97.81953902508128,-72.61674258029441,-66.61248343100192,-80.37516522208578,-106.64448685486627,-136.09034172878555,-134.64640710636888,-94.468707271725,-58.172136317727094,-45.73203336532606,-39.94607595543517,-40.70646197684978,-48.88360920637539,-43.912714436121384,-27.783815022353497,-21.59841143379305,-17.216850413850047,-1.9963251193066256,5.885963464237859,-2.3996304269239173,-12.36345775654854,-26.78682197759217,-50.08606792763662,-60.892253110725385,-54.153661923737644,-51.22690290999595,-51.79846086825784,-43.08098147081633,-34.91244076215974,-33.387184967616285,-28.858196641229497,-28.57407721161394,-39.84174672794492,-44.94220926230013,-41.65605663157644,-48.456863279698226,-56.63314722573865,-48.787084133414886,-35.12352259581627,-19.869586342897563,7.623970135128903,35.14142930359474,49.49810171627353,65.88733050745076,84.07202828427138,81.44736926453157,64.24777481353063,50.248713221025,32.964459908266484,16.033837222415144,16.584459054543302,24.511278608414983,27.11550395364634,36.558454456107384,49.61133938122275,48.27228891070159,42.97455169402433,46.4488862786304,44.258197310416925,34.41868892214792,31.654205033660116,29.136557001271807,18.527516172674233,14.318395224096777,18.082075525316547,14.138318410686434,9.455917552111142,15.792041758433681,20.143279936301234,22.150959894348873,38.81455092037031,58.105826532309436,60.517078879765705,55.71118077923107,49.39837043859706,37.096148835305684,34.97490232894262,49.636777302670886,55.08285610504071,43.88370458777766,35.75334426468204,29.421005168505324,18.02160220194706,15.695114506081012,17.947686139344373,3.9126245970465185,-15.11921028832952,-22.713489284102184,-30.1371978680288,-31.928033540167846,-9.062953761833864,15.798508593128242,15.51299457016204,6.723243272996395,1.6806466442237633,-4.416833121001075,8.397066512247072,47.66008470027421,72.69238414399095,62.62134534581402,42.665806703246474,25.077377539351524,13.012561598038957,24.861372932958602,49.8397709132799,54.49055646834044,44.81107365949596,42.30526488242988,38.521081500465264,29.725032581693025,28.89639372942708,28.8930640366589,22.284092337804175,25.537352247587542,36.415398206172085,32.895062412606144,23.059105138636625,21.7559120596018,14.833348660576156,1.8039701465472984,1.4690408423949903,4.205607250102444,-1.8157584086022056,0.5224794415618708,10.233947422495476,8.236155031380928,6.264787026683516,16.62049378431635,20.651161533652544,16.102476976197057,18.87993885538975,16.990109777069208,1.129633295150824,-4.992157769249588,4.368397907018382,10.282461428733452,16.02107934617976,24.931527143718245,17.685659977487706,0.37198934399870165,0.005229102556330911,10.337133770880335,18.14578123444786,36.63925781288982,61.53818535417385,70.16288298422519,69.97175853304121,71.5339817551122,58.968014323854746,36.35890534498408,25.10522519527521,14.372638987072623,-6.261885812442995,-15.383613162604151,-10.894132726004337,-12.769866047396874,-15.831229337629077,-15.263585190930703,-26.495857287615653,-38.38444195110862,-28.722320880853694,-15.616652493379652,-17.41618268479547,-19.45964289049038,-19.081058822231363,-23.545128452690548,-16.378782354758417,2.232655623678644,1.2983331505442348,-18.52532118831319,-32.305271792911206,-44.455996170730366,-59.088832419603804,-60.263183809791684,-58.6689730466762,-71.1478368124149,-73.93818409882158,-53.59094978106748,-36.65770265286318,-32.582061941704566,-32.39167335754289,-44.97512256513109,-61.319298817717474,-48.96370780575356,-18.049265041200876,-2.9426128792850728,3.1142461075177765,13.294100464297115,14.70503416470873,13.353469076246846,23.985960453897818,28.103291122588995,18.377174313211547,20.922779561226232,33.27580987999006,30.51641316095158,22.663235825482552,22.20415579272819,12.580221212164478,-1.427340792338069,2.6239877416950943,11.908124825854015,11.490394718278303,16.945646874124108,23.680451615318834,10.405794479239272,-6.696374421536974,-9.200737256831482,-15.086809036926095,-27.431579400690566,-27.742167829186595,-27.50880565804859,-40.730962631457984,-48.80522869703627,-49.44548803349964,-59.79635642470608,-65.89313238855941,-55.50094612722696,-51.89238008453735,-58.57882766140976,-54.32451227621951,-46.004253275838536,-41.984976380469,-25.167846441011967,-2.9722863653980234,-0.6030023637863169,-8.163790571439113,-12.689727888832795,-25.845424297601955,-36.06418922390882,-21.22570490456118,-0.9485281278457149,6.79292220397331,20.91702267445822,42.88650179427212,57.015931108655764,74.48494389729653,92.38456118341887,78.62401440065557,41.67465038646954,14.70461452883575,-8.699657420262916,-35.12543247623348,-43.806191743876774,-37.1201049079408,-27.842867198442672,-2.072385575035498,36.52426013744393,55.500329905612844,53.512311858644786,50.97327291785023,40.28710012528071,17.728570583408754,7.249214768956083,10.554257936215375,12.223927079179365,21.603670258604698,36.69542685203129,31.122053468036725,12.7082661853123,7.488650959013025,2.752856685435546,-17.133288207684444,-38.155412841746276,-58.56742020652213,-83.36023544013594,-89.48372464478791,-69.57020982377023,-52.32414068160095,-42.289995436565235,-22.904384213377885,-7.107651542995694,-5.716401622393434,-0.19842886780085367,8.185610436674327,3.2090575784836655,1.730335734978066,15.255212717163332,19.759804717315475,12.792061712105653,13.040398092202206,7.986951153905499,-11.897777326370658,-22.112527760132977,-19.5425932078871,-24.397448162033122,-28.044875108959616,-22.374851141543992,-26.95948668146436,-36.8271241351474,-28.353563920139628,-13.059553047433027,-4.0779047951699345,14.311019340468707,38.34057261167683,49.35291202025099,57.299595378550634,66.7055741625859,58.63768982992424,42.463173145710854,43.45631742560709,50.53005641982736,48.80583374276264,48.50159417798555,44.925197273992325,29.956048007192102,28.760309718180874,51.776307900050796,69.10916472310417,68.68657284384855,59.20336537067885,31.902460481206347,-4.850647164413106,-16.615915570049786,-7.4253557360271865,-4.613600489544616,-1.1878081622656727,6.528138648281717,0.2916826081587094,-7.0931793651411486,2.470114493467591,4.364217223680074,-13.225708118959528,-26.56834777601197,-36.52107488371768,-53.936157316395104,-56.65232736055417,-38.9693149475075,-30.041483247663358,-32.289039998022425,-30.90393997139757,-39.741954726162525,-59.91975588305792,-62.066373126085246,-48.17644082793044,-41.08924334508465,-29.823489236382233,-5.330916583266652,13.989528142345769,30.335398575095965,54.38056591350266,68.42470840862727,70.72149618143784,82.52891256456068,96.52746223904221,98.24201785581307,93.25951128911966,79.22429296597012,57.0620040844253,43.2385994963264,31.66212212387186,3.5139764228162482,-30.40769531509724,-53.30469489124222,-68.0639495719266,-70.53243621415416,-56.55995128111999,-48.510204901732564,-56.3298773925063,-57.772554751697555,-51.34740145951853,-53.69183470478653,-51.92678192029768,-37.180422210147256,-31.232026862270356,-34.103009520318054,-29.08914230905443,-28.732444170848833,-37.55428449457932,-31.41378476418774,-14.855219642395038,-13.353466844580797,-18.60521455038247,-18.70367671548391,-27.321549067523094,-40.188474456473,-41.25682273168583,-44.62807680784881,-55.9998113467266,-48.7992751970177,-24.64570949471218,-13.509675964184828,-14.954760477963594,-18.791055171055294,-31.090232706785162,-35.09551553734898,-10.97392413726632,14.165101373822301,16.771350329268827,16.252656075281262,18.65832356381583,12.521584930835493,12.774186239506477,23.810867926150475,20.10582343869873,6.058829938090773,3.7232546921725724,-0.36293149530855207,-15.100427735731946,-21.61201150990208,-24.1178503976018,-36.23632212716468,-39.63880225977689,-24.980725165182285,-9.552433800239749,9.875681668058274,41.65061508541672,61.623539900288804,57.42148046168542,47.460737353834226,30.730238061706366,1.7450893816149051,-12.768405708516246,-5.251269749916453,-1.7610693589396884,-1.111694094857239,7.1520761523193634,2.5181167492940215,-15.097498706125378,-17.91515925651898,-14.239368618039611,-24.44582625124781,-33.61525980784175,-37.950013771555255,-56.174795403856585,-74.30965889236889,-71.6955820467679,-66.71430739349098,-66.6417317964035,-51.965525811648206,-32.9611729737525,-27.926681520503706,-19.496974343465585,-3.5745935828089435,-4.94768677402886,-18.6182526026098,-25.009651793523364,-35.23352278247053,-48.387726762092214,-39.367030299413,-17.376172378564924,-5.4876929662921405,6.7322710360662565,21.622322263000093,18.55771153601122,5.70608433187158,3.6106072932986195,1.7486078456374754,-3.319590469602871,6.9409716086686295,21.86128421475882,19.849643252158046,17.624482025951703,29.198661593832874,37.92265018617384,46.03693417444133,68.68527301551106,89.91484467328051,100.57609460237191,120.11483369638279,140.12559665895782,134.02456671468713,114.265138743792,100.09262679719612,82.384504636492,65.37281092415222,62.25727619090714,54.16266299122033,32.20508888897155,23.673377717986234,30.61395971427798,29.897132577344124,27.29882404753168,27.855091662820524,10.371894463757862,-19.213534185285305,-35.44029368252629,-48.71404773596779,-69.23058958318632,-75.93795962745955,-70.34556716690253,-71.3169863777387,-64.69756405611358,-42.961840828977685,-33.67225965581204,-39.87127319370738,-39.12036138244592,-34.453125180336805,-27.94986589998945,-3.240249914583801,25.23633530886193,30.17910013165423,26.246579630217767,31.219965416420777,32.8925094206837,34.1609766200369,47.07344142593614,53.98872772782845,45.77948006286501,40.278240608094166,33.12508430418753,11.35957905083681,-4.1435797034724136,-1.3620262842430457,1.4900547139860445,7.713195736014371,30.699417713930536,55.793343708488415,78.25816915478666,109.78045613640808,131.66154516639037,125.39380558551832,113.29667388299204,106.97205154013653,90.32409671009921,69.51867858551341,55.70332517492214,33.30703469699549,4.456880602654014,-7.69561807492628,-11.999371772659043,-25.25602952534959,-31.170217648169483,-21.333425888081187,-10.689685491445756,3.9452725428393736,26.435429051660247,31.407345548248607,9.302479416321171,-17.761603798499863,-44.51650729162,-76.16153928391346,-94.49297417640354,-91.24664443016813,-82.49128531901286,-64.09574265107753,-27.134017753521427,2.3585037284651253,9.300857519627506,14.733689702574107,22.137685265884866,22.712691154543233,35.30856127468367,64.92592137774805,82.82928708021905,83.43451597517455,80.85422080420025,69.7960190298341,59.68916645689262,78.3940938120154,107.33844590829914,104.11620680993143,74.86329617155332,45.497119895293466,25.19558822160375,32.65872815446927,68.37847369579313,84.92955052892354,60.980679241014215,32.49758692877724,17.671442047877626,7.337708449279003,11.0236501312878,24.732999876828654,16.780146404690527,-9.859886457646645,-29.73691170027403,-52.69249132530973,-85.75263940951766,-104.73326793444161,-111.17651287138409,-126.43111452742858,-137.57337019258102,-134.5382244522064,-140.11920483287594,-154.16776369519235,-156.55196468036542,-156.6202034133533,-158.77100027229278,-141.43536738358893,-112.26456216128756,-96.7443683103415,-85.20087131116848,-68.24715032273716,-63.288424304384655,-66.4478509019758,-60.409108017693725,-56.93420818253678,-60.65883065218628,-50.80360517710022,-33.000626226823464,-27.875874982758436,-25.873873872311577,-22.000146088066515,-30.298643062354525,-37.108621635908136,-25.11076032675038,-15.939588873533783,-20.34603754450643,-18.402082100677884,-12.526873064368528,-12.40529145509373,-0.5125930892576509,19.61743215466013,20.196509819685726,12.927537325085261,21.660321784779146,30.339221161693203,28.884615497716368,31.699729097666847,29.52749705213901,11.984587185559477,4.0204066958689095,13.203337939552924,16.538018958533577,17.56150971310877,27.399191235063626,25.807788897411136,8.678786464649182,-0.21492822998747596,-4.079388983923401,-14.402764304427517,-13.831460098491352,-2.308470307783283,-3.796807262503136,-10.372303886792277,-6.816427494022213,-10.338281068844152,-21.359650414948387,-18.036585725446237,-13.06377021924399,-23.627184689922544,-29.49139741408389,-23.144948499033585,-19.493859749307695,-9.110172897258298,12.925713922969024,19.574047777635506,9.77380471509549,13.218895834094747,26.555934461751825,31.077099924210877,35.322979657512434,36.797033396655145,19.1956666272996,1.0711188587739588,0.6430256420175486,-4.682567043287028,-23.170771786556838,-32.27083542882981,-32.55556932880517,-32.98230270207174,-17.082595180420917,11.965671434852112,26.770817364938473,34.52701539167043,53.67630503892612,67.94243896255124,71.01269067693265,81.61689427944701,92.56001113319331,91.08498395492873,97.12529704106964,117.40426411637475,133.4220796937612,152.45878562218397,184.00289815034895,197.09901142724743,174.20913528449424,139.62388278027936,105.29410478856852,75.10741481056743,76.01013278015745,106.10698843330961,123.65998218894836,123.39956984259254,128.01875369646754,128.66537869133668,120.51502105455603,124.44846244310088,130.35676571788946,112.0910638026515,84.37129494874252,63.136805926773576,32.969205961656904,-2.6248416089387874,-27.99895520889114,-62.77965316580803,-118.10657119089996,-165.35968647067665,-195.07676036566244,-217.32242092951117,-216.52050841510376,-191.28023585342214,-174.1184415055195,-169.2322311333349,-160.02643250768233,-160.05260645269996,-175.0902070062107,-181.95212386200336,-184.81071271847156,-201.7750581997391,-214.14229173979928,-209.35994212957056,-207.2061110961556,-206.27489322093518,-192.18631720062643,-180.29694393057957,-176.7201754494597,-161.09299076846443,-139.71683116017505,-131.216838719041,-121.55416865339896,-104.76136345234613,-100.29523065748054,-101.17103602242037,-90.80844823150895,-84.44684926558058,-85.34582656083052,-71.75202642022,-51.46013536544078,-42.65171931464344,-30.682082501877098,-12.085052452462815,-9.513215609253812,-18.074721903816958,-20.78622911110948,-28.532917414150326,-39.708867759775416,-29.886606814138474,-5.819665977329185,11.361913841069756,29.908748657778283,50.1756889172516,53.26767150130698,50.907548357292235,61.8400746551194,69.24115672197374,65.96434788690239,66.71118374339022,60.60892331088495,38.59534145205964,26.186973246435507,30.546675454318652,34.134244881802644,45.78756304144677,73.44515419770802,92.1440186605248,95.27873570643527,99.92605508292071,97.00845974313451,79.34755988060897,71.4297715440259,76.33329973545924,73.06235262686329,70.32666545888438,80.21998725041499,83.80392778374016,77.65872420941501,79.24928929168124,78.10151815493984,60.830976759440034,46.248824307402714,40.57640789757643,28.202255191610735,17.778442208822575,19.633636280093693,15.240621860227789,4.836572304157974,12.876138611121128,34.19081450984644,53.65144938374099,81.00731170337451,109.38347125700055,114.32674630438217,106.50887829717703,103.97875616595785,92.48125565516821,71.38623987284886,62.4178786490623,58.57179408537981,49.26616704852188,59.33336044386581,95.32606452314086,127.31719159630512,146.72410218078636,156.00499540367565,136.08705103603478,94.68645887599965,70.85086289026049,65.23287301468187,56.182776708432186,53.632116742747975,61.3745373211475,60.64412264681743,60.97386907926302,77.67845009957529,87.10451104935494,77.89279036776517,72.54058884563592,67.42023155785388,45.280646074002824,22.856512921415778,7.934203451576712,-18.70037292878397,-48.04000108960796,-62.275644767501035,-80.020368319243,-107.32225676090536,-120.03528023269357,-121.94249792777553,-129.00620272025526,-127.13078928623386,-115.87208396256896,-119.28264021311634,-130.86080048417261,-133.7070932893921,-141.44890100485844,-153.57314006627035,-145.785540508223,-126.71273144190624,-116.39572443522852,-100.96442752414498,-75.8744240922242,-58.77785645167643,-41.49217360079645,-15.713879321206155,-5.782653197655383,-13.22298724942658,-8.135703622653816,9.563222166188343,24.678477853340446,43.20341838702863,55.12203188289062,38.874826210018554,15.561956443314568,12.551806442712959,15.732219307832015,18.117048675509405,31.794268224106975,41.31425694074002,35.01290016544695,37.414161634643634,51.9686488340464,55.152257425157316,53.908481899045114,61.345457319313326,61.93061236949386,58.45378518824171,72.19793326783139,89.97459115275115,95.08096476133251,102.23563327903335,110.04958922101031,101.69715510045125,91.18073920678347,90.16169013187726,80.76569968740846,65.39550160082895,62.07309611942391,55.97508920283718,35.234964492327066,18.635016586880038,5.004155510287868,-18.346994142641393,-30.91406600893606,-22.834432818306333,-20.473791405547974,-27.139248079877376,-25.099406213508814,-25.825130160964587,-36.709031704812496,-37.18556310259493,-33.506040739702314,-48.46826839187547,-66.35220745435421,-70.11247381286216,-74.1677192225949,-77.8013166515404,-70.02244585407334,-72.00702925025902,-96.02948561933349,-115.29550304934604,-119.0708014128162,-118.29403098153745,-100.25088980460123,-58.11457266308411,-18.38097035634695,12.949690788266151,51.98979865184458,81.5135159655595,82.49910514935931,74.60408355713147,64.87964424639895,39.2359989995809,16.65076722492832,21.978313576174514,40.88621564733646,62.89824160804733,92.46842092572588,103.26646837904565,74.47869827965879,37.81445139497027,19.616322330739703,11.847733322345816,17.069883307260085,32.27057374370021,27.107443569203202,3.0668828441123166,-4.997797151920473,0.9059600078169128,1.4386577749700622,7.426042196879389,18.010034992399735,11.77831866042013,-0.3176556362289982,-3.337054640830527,-19.9204367888717,-55.029610608530334,-81.88652707548684,-102.60749554458584,-129.2135309849293,-143.0783510275783,-142.8380474079969,-152.44085881569347,-164.06593287092429,-162.71762553422442,-166.5663520177905,-177.69567247751777,-173.99938258366228,-164.70125226612143,-164.77370688426006,-155.57490797895028,-134.75680390663015,-124.22174718716283,-113.88264767969967,-87.94597385766468,-66.03866634325396,-53.676372272910044,-32.65456913332726,-13.42369977043334,-9.428585242608618,-1.6652531756402529,12.57282426659845,14.97939852297343,17.559383356628445,32.903030040985364,38.559886549186544,29.678651051982776,26.758012422335664,23.914263329757343,14.371881918155157,19.7555976456859,37.49927788391584,42.03738118530952,43.343400632672655,55.848205469195946,59.11664417306467,51.44171933287468,55.14180578382866,60.19855686260777,53.553718156787774,54.945182027181225,67.27369644671563,74.97995058398212,90.9787823659099,120.96839536680677,133.85730922019582,121.35810318980276,105.62990448116258,86.67746875408542,63.77850816391937,56.196580494083065,54.40427928438371,35.801090162742,17.008694146990855,11.339714782329914,0.44060015195947866,-13.311999684214163,-13.404730866619042,-12.706909689918508,-17.00194890264824,-7.495533656650468,5.826384388724312,-0.35436859262542253,-11.143623113965639,-12.802935160790017,-20.87250753792502,-31.608887125562568,-29.91104656340449,-34.083473402990954,-54.485806427501416,-64.78239077757837,-59.282339610442406,-53.93707534727865,-38.959572930260485,-11.496571963308522,2.651389632464938,4.7182641723372925,18.044466451712076,33.415764529049405,38.33290471215529,48.55850240099838,60.89900271382417,55.515430815831735,45.22889323640432,43.41208959329035,36.84222028577119,37.25958148753292,70.5074432152821,115.88238610994318,141.34822160937154,148.84956152508394,136.0658769162772,95.86601274265897,57.35882677612131,42.99720645350399,28.78780098784501,4.830280507629805,-8.633116362903795,-18.21956830566177,-35.76833128798696,-40.39908670349835,-30.06795278293517,-28.72950579836382,-28.90623442851455,-19.078005616052884,-22.32787670745094,-42.26740287689484,-54.01728197421555,-62.62666063808978,-80.63144847277012,-90.08559236393667,-91.14076732203111,-106.29334139803842,-123.72813848428262,-126.91336410628864,-135.822204170488,-155.20119382314942,-164.50735854906432,-170.7538179329806,-183.95500716456664,-184.0942710513714,-169.49607482008594,-156.60924532477668,-130.9617383602048,-84.57526344296744,-47.550920866966564,-28.387086438367895,-5.610987378304742,20.892117802710825,46.84861138522038,81.05042047337528,103.39016416613191,88.08581625471493,62.349944499725574,59.66828851270835,69.69135006412544,82.42604886974671,97.85653758522577,95.82526613730957,73.69108396435672,61.96564176144785,65.9674138306011,71.0788087477212,89.1247009950889,123.36234750920289,146.3214438500629,154.19946643890358,164.03041662775152,166.5409255072536,155.65150221176117,147.82601282528327,134.80577361119322,99.9493462437888,64.74187146579334,45.06512959187309,24.835871932935138,6.451499805059285,1.792494919626908,-7.252182830831771,-26.842201261054612,-35.07291891243333,-34.80671366180493,-38.62680509067768,-31.252604706211617,-12.789104791472784,-8.070745752799516,-11.66216451479198,-5.757813076418052,-4.458021367991358,-14.316039479380349,-16.933086515686433,-18.23012990792962,-33.50901030465519,-46.041746345874905,-48.029848265272534,-57.789988332325045,-68.2674574563415,-60.891202050085866,-50.10495556771558,-47.231660630605894,-40.56212022881156,-39.80249829589796,-61.33412871765087,-83.61383818635383,-85.12606870520358,-73.55009504950516,-44.85237927726733,8.241793877025456,56.99475429416211,79.75919840171858,94.87659650657326,107.7852100109494,104.68046035160518,97.61021012478052,94.58444648520903,77.01158115869049,57.317455724371904,70.2022120534524,105.33264847627295,134.53496333026632,153.42373431434154,146.43383009845937,99.65883644221587,49.64722152214186,32.69527388932562,33.81064690508605,37.23306365482701,44.34804317349302,37.77825971732776,13.049572457719087,2.159387390895159,11.858300895756148,16.279602171202555,13.961092993675493,9.768756121396223,-11.889513781769438,-42.15159064347045,-55.42277955714117,-63.95070217299428,-84.1415372812852,-99.16874875045615,-107.51540824145671,-125.49731420891735,-138.76134270783683,-136.1319562630642,-141.35828427833002,-156.2686573145702,-157.55276130328832,-153.99018047932634,-158.74569641849962,-154.2176006813835,-141.86488303261945,-142.27115196007472,-141.53204796126386,-123.17699662307325,-103.3148375544183,-82.7940517445729,-47.76319024805736,-18.02199905158082,-11.87480480432537,-11.010454493228279,-9.671858658848471,-16.595440447210667,-11.12388473349429,17.439114904936677,41.10103363051542,51.62923510322756,61.55925487363519,57.66706954450028,37.47283115988983,30.574250124306538,38.08851744793373,37.86501180737088,37.789659746012276,44.01404604530558,38.290033807373504,28.362595436952503,34.65040241127964,40.89733703036299,35.21722058466139,36.52814602020156,44.39756497072319,48.77193394833965,68.89167457801688,109.27788748876986,140.62875797878252,154.58186770945198,158.67990088956648,141.10672212919076,107.49256322608935,88.50336801347234,82.55061851734277,69.23442276908575,56.2093302891358,47.0085569173203,25.534777284003507,1.186651660656409,-9.656098290502488,-23.34734355162648,-43.76649527114204,-47.69132967828723,-40.38065562759651,-39.42658564330359,-33.66075395796277,-23.99292907584405,-30.663643193839956,-40.72909978757957,-35.14893744380621,-32.93604290187558,-43.53940750213334,-49.93101194205168,-59.155958627150575,-82.375525444884,-94.7102184312429,-85.81802133225963,-80.14402848198688,-79.03167382356783,-70.61530126311375,-72.08282765588004,-86.3988229217402,-82.75810829649674,-56.903784394733634,-27.34211291417819,11.02213180934157,53.097266421383004,68.13852644026424,58.87780482703583,52.43989515347904,45.259440619062815,31.79601132788663,29.0567694181482,31.77933393237381,25.987327217572606,34.544063878201904,68.79691626420683,96.92603076707172,104.86206700317335,101.22123759930746,75.98988990160852,35.11117850270442,12.932255816552058,9.59477462451916,0.2641873632975975,-8.185457802120524,-7.138467993365328,-13.044380446254907,-20.33404770635577,-9.514784121478426,3.935272124773417,4.853743605604005,7.666028216196406,7.99797889160494,-11.676565950296842,-35.441649397060225,-51.299152621579765,-78.10078097047088,-111.64418876893579,-129.41708945728618,-141.66802671935847,-157.64108746939212,-157.60015768960756,-142.6633739714383,-129.1952638082804,-104.13654235733692,-64.80857299527592,-42.015133561159445,-39.3891584566089,-34.925955955038106,-30.81808853368937,-26.1277339486847,-3.0533983776426545,23.62170078261481,28.166347013191704,25.217978510761327,28.47970886780489,25.42778459554301,23.12755926727645,33.286356632338595,35.08650645267779,22.8639842115754,21.655823456781214,28.221043948281693,24.592805270300445,24.44280254317253,33.78776870005906,34.627423676905494,37.25223521696904,61.71815874772345,90.6075186283804,111.41639358053949,135.8196427768141,149.61443414696907,134.81727936301303,114.19551923033987,101.53454332784823,81.54026463140505,61.666758114919325,53.69619195990626,38.86523371570534,16.761075566412664,10.980487783947304,11.826453047483458,1.3723867931179754,-4.358649513718485,-1.7378545523854,-10.084046215848392,-20.66100154504726,-20.797482219618622,-28.96755658647676,-45.27897618260213,-46.29571050360814,-40.85120999754798,-44.43722853631469,-40.90223461745501,-28.51932680095255,-24.878663436313836,-19.265976025414258,-2.155743447428206,2.6494584284068976,-11.114751498421318,-23.852769769103006,-38.95128511173061,-61.528846516525306,-70.06633225233338,-63.634408228988015,-65.2617358668095,-68.35337789284964,-57.18301318175142,-45.62121192553919,-38.9721805592534,-25.475946276025454,-20.94239993546129,-40.32125554038488,-56.90895490300096,-54.643218231113536,-48.60090618846085,-32.32668550737481,5.364823248964123,41.364921237017974,65.26355887879758,93.65125183996109,114.63277874607043,107.64480441203932,92.60385067941584,84.21237303014696,66.46864680789713,49.92234652769736,61.81029500831144,89.66876532759584,114.00713825787955,136.73608741282285,138.81530924116774,100.65002543104924,54.356723796965994,33.94427291349044,29.487112844675664,32.790462346173506,44.428245004675844,42.57684980052884,22.40443539094508,13.358502102558687,18.3053772533672,16.432774173477245,13.916809284635946,15.173524317967559,1.9029772313895026,-19.07001631460051,-29.18848902414986,-44.73498432249838,-74.27986906339106,-94.00300433107479,-103.42171204398036,-117.90696685138363,-123.01586094771777,-114.34188043704705,-117.04483168005699,-127.42070992492181,-125.29243933376662,-125.72989859939817,-137.41048965910161,-138.46189620173837,-131.8739688015115,-134.1261089465481,-128.34203879108267,-105.7659990767697,-86.57129544678281,-66.17660450186764,-29.196031408011915,3.77790319860037,18.419815764771155,31.300592763290304,40.42381120534134,36.45780310460432,40.48102919005056,58.62453135727423,66.25684227028424,62.90258167318448,58.79171127650075,37.329863017072526,-1.0771766823071705,-26.359788140356784,-34.21279542040052,-35.57088004301452,-19.471456947892708,9.21578851550495,22.668021072683292,26.386975939461017,41.16710908969246,55.08214488808975,61.25967308735973,75.9700104997898,89.83737143435229,84.13486766357984,74.01217521761491,67.5032911572795,48.116537778843096,25.623487647062376,19.166648130633998,13.958335853144405,2.66187974641343,2.862116221643942,7.4925465175985595,0.7706068805513966,-1.9114446443513722,4.334909126337596,0.9572643759503239,-3.3490922014197855,6.177341753541256,9.553241633539063,-2.3892141885206177,-12.214855332750066,-22.732485026702687,-38.2402004478716,-36.26626790542604,-17.983752321551876,-11.590196687427223,-12.34773525714851,-3.516380465698052,2.5134449061679147,3.0662826667127967,10.197011946022394,8.375713383284113,-11.588810544879474,-20.551059771215833,-10.661519298986846,-6.281437563587003,-5.189311442817349,2.876889394374881,3.1278945804187166,-0.2618369332200827,12.250275425962338,24.725901122599435,21.90239792945645,24.457264349619102,35.39490417308252,35.6133507820549,35.45375186223755,47.24745155846826,54.46874788678149,58.510705774347436,74.6673100070122,83.5354750382486,69.56434543203619,54.64886287044163,44.811042478518104,27.339663135551994,16.38620702015386,20.058645883560974,14.775155276620566,-0.8081453716395144,-7.728542713822312,-16.838173309608734,-34.91051665443905,-38.258579218570254,-29.557135233913687,-31.821738304120153,-34.58960111601014,-29.792844774337265,-36.02752545553322,-44.969381891335075,-35.216072057781645,-24.775233936776992,-28.732762457695877,-27.565277136224513,-20.69941707252992,-23.710271377263336,-21.98604905663336,-8.688151996715291,-8.640256490542304,-19.55468296454857,-16.57957717468673,-8.75561074162191,-8.767729426446795,-0.67671673139475,12.33273370498285,10.767909027779567,8.483344947175247,18.617582678987436,22.17976412097746,19.915370238008066,33.11092398133659,51.17885820518037,58.68869474378311,68.35893445281079,76.4236755922475,62.57259120243446,40.72038695973143,30.89562630528358,20.554454969764265,9.1127032087425,17.858475372153098,39.43770610034714,57.6777194615734,83.25853159975338,109.04878602360186,106.23603635120446,84.00419899156184,67.9811429589921,52.81716239908531,38.49924721550482,40.448373630459926,43.74644834658834,31.24819014427065,24.42633655734598,29.830577333884882,21.996715961812544,4.972118291851381,-3.1500671796304913,-17.494220077677763,-42.54718655560666,-57.50044380695068,-71.92707526799151,-101.59152523263894,-122.101419704042,-122.30340310969615,-125.93397869533894,-132.63245091630293,-129.84427776194164,-133.8600421481855,-145.76185538487718,-140.62046090619668,-125.41546386062366,-117.64516356347033,-101.69631437591791,-77.40670181425581,-71.11294141608425,-75.03334372883671,-67.78417978420867,-60.55636008104673,-56.04588022733117,-40.60079693447659,-32.456864705164094,-45.825747209449155,-48.27165491780182,-22.833470549674175,7.12850568834373,33.328656513558755,53.654144511021,48.21624739531917,28.04715713933035,26.705489721465483,35.455432027079354,35.38392710276333,41.58941656813952,54.41819209936841,54.13513303150512,50.98024337363424,55.80015760603682,51.946954862636154,45.43054254522508,57.058121137384234,68.81274040231936,61.64723889380515,52.4368295916602,44.21814317596998,22.860117882881724,3.0712928149425816,-3.2015064254198853,-15.26548836059996,-32.28966519670248,-34.37369458486813,-32.46993291575883,-36.17661993263971,-24.541031816237002,-0.040469620662276995,10.91571415014408,12.747045117707556,14.710261945036713,1.4578584337349563,-18.336622542827495,-15.759014292956767,2.0235914443299317,18.638954134413037,43.41735226544758,66.7591611246591,62.97604143147774,48.20005776453418,50.65152657209772,62.50080142241309,78.50902820758327,103.93914528897744,114.9609331040379,96.82125571489655,79.13141377768537,77.37424143648518,76.76880016025561,80.79038049276812,92.08506894123533,87.435895025669,70.5085605870605,71.93708939363577,84.69519794737394,84.98133173406069,76.53147520920331,54.76651764214552,8.248285208590524,-32.70601731557322,-39.645961907038945,-37.93334042153364,-49.26127845975671,-62.95258370891411,-83.67733921698846,-115.05003896552137,-129.7120030976258,-124.24545981813621,-127.78038400726972,-137.83754058814694,-138.72835320516234,-146.29576960364153,-162.32267339140748,-162.2618670230247,-153.00913780930148,-153.42046603534763,-150.20014551600175,-141.17569065833183,-145.6616594948186,-151.38116756552017,-140.0067709515542,-130.80600293912406,-132.26829379722093,-125.71543771510554,-117.80657223180152,-121.38513921971239,-116.76021434669475,-99.85547636356063,-93.21451844732728,-89.49313307013415,-73.81017461345783,-63.95538313136568,-62.70998142173039,-51.26850465826708,-43.0188802934065,-53.785050801323585,-62.20376232979028,-59.866814972022,-59.7769948153346,-49.36394078435258,-20.36641012510303,1.0264893569881135,7.624358062675173,17.99038924091126,25.88885581883957,23.983265226487624,35.3994595176276,63.05202819896944,82.1249026479203,94.20708193545136,106.76032948000994,102.4407927198435,87.85081194888579,93.68064282412256,114.83452118117958,131.63245823331798,149.56526318504976,163.64859315381528,156.9586399146232,144.78229279383385,144.52012273601025,139.29356333328417,123.648942022808,113.71405646570007,102.52599384284218,83.24969390064814,76.31646224515205,81.21793974036682,77.57024078098739,76.31706919243206,88.85051896586532,95.6696043535422,95.50430166684797,104.29169294685114,108.29477121286418,98.73432408047876,100.8931095927665,116.6786559373495,120.85203011892135,117.23260257463457,113.79167892085724,93.71551302773582,64.98859867701074,52.945751970605436,42.385618110471235,15.069311405767952,-4.416905855246128,-1.135009835199825,12.650145140905847,40.6892827727977,76.93620029533227,84.1585204974132,59.83553460273576,41.38129238785341,35.34994578108959,30.49015070108028,36.89065903145086,47.55720934716003,41.645945008099794,37.330254936694296,53.40511772164131,64.24253639166058,55.744251729144764,43.439991977344164,23.138799913922178,-7.165786892190514,-19.901755713713197,-15.51431911005158,-25.23820761765576,-44.55735241097916,-55.412414988878524,-71.30000282174372,-93.1486352957012,-101.05360839413314,-106.52745148606316,-125.0592396540643,-135.55203558919754,-131.33792609035513,-133.4401284064183,-135.27955690306862,-123.78468614312108,-119.81480308368448,-134.39885199985798,-159.12488807104415,-199.10462465488547,-241.6861736818119,-254.59287642025043,-239.43400727095772,-215.0370663007552,-188.05596839167046,-173.22031926351482,-174.37280730771909,-165.7040040800293,-140.09773364669178,-115.07581690493848,-85.49225462111772,-44.57178178233168,-13.959672597801836,1.8965309988438557,20.340428405972776,30.86651021479765,16.86868473734084,-6.274816524686303,-15.015820156043512,-1.7003430531612125,28.725225791885123,66.37721016713857,91.00042519931006,79.5596929818517,48.0153224621088,39.45344663715994,54.386619606392784,63.57561955584814,67.97215250836757,73.54648457192164,67.70921291600415,62.42766458625745,77.77434990136209,93.51666268055222,93.79707905093807,97.3482542492112,102.23757831532536,91.03510806834214,78.38435843236212,73.09747270912877,56.109823368731185,34.47061471490371,30.471024674440176,32.87458482733962,31.523815044112524,38.67977536844291,44.02493171212018,30.813569022996262,18.51303549205229,18.760318441008298,11.393205890621216,-2.5883690067941965,-7.169967624260478,-13.467538513940449,-22.895339513030965,-9.954369590905252,20.839143809756816,43.08703726146031,58.46090584005815,67.21937987339757,51.53741338184767,25.032474099210596,16.181638107476076,15.73409868665237,14.69155015802144,30.28316139503126,53.9594023429943,61.924279779107515,64.38680792652121,70.04546077696895,62.738308453198606,50.073663142133185,53.57975516785809,60.02879073977921,56.31409385456115,61.24911876278333,76.49678549548359,83.36951616266339,91.87069454387512,109.78594587859153,109.0370769779211,83.55376053677134,59.0915880157483,36.84488285905758,14.641571194105989,14.637875500422952,29.826970244153976,28.595608055161495,19.251915677592685,20.77753342586842,20.049898193622877,17.87907924274001,30.43658981835097,39.61223027864486,29.538405493550496,21.592366833948386,19.751376298682136,5.758701921557307,-9.422363416494074,-14.89384323602539,-32.40293283307079,-63.53497831243449,-85.3697433469481,-104.5912641195632,-130.73528565544626,-142.78549730888273,-140.25522876247757,-146.27769382759203,-152.78508033658048,-147.98840753378403,-151.38387529798956,-163.29411322019217,-162.60875244313138,-161.82513134969977,-175.50979136984537,-181.8436287215169,-176.1444527250573,-177.5642002964711,-176.14429044835214,-162.1449769134627,-156.72168972327626,-157.74971678154776,-142.58664953353474,-125.37896151283364,-123.84300654652252,-120.22701364544162,-108.06367289840382,-96.27456272246349,-68.89606171437997,-22.24309719639929,10.483365430574874,20.831470102785858,29.78549229011324,36.34795338855622,42.12667965802147,69.06941519439181,105.682864467579,121.96850202087461,128.388178643319,138.9032104568775,138.86720190469902,133.70605326889296,139.62555368998466,138.34635988970135,121.476356347017,115.7864124802498,121.91800381654103,118.21639810830865,115.75023339983821,125.30189398256442,128.46571758177402,127.5654143595476,136.45903531958862,134.4121970678096,110.29479718031945,88.03013483966792,71.14415032438704,47.88946262123926,31.737514857035094,26.480666139013703,12.038685615132731,-6.303842773827178,-10.261691345437104,-10.342206073248633,-12.517337140491708,-2.604675632438669,7.806105507797356,-1.1429153911432968,-12.851248864427097,-15.888561297099992,-25.766306302242583,-36.12783406540129,-34.10754434588998,-38.283989106782755,-52.889475119456236,-54.91869526237821,-49.83697696186363,-55.63467176923337,-58.424221436811536,-50.40928216270637,-48.306310889801324,-45.54898245508177,-24.417731980889748,1.34626619977971,21.761214937310243,50.25263290593732,76.69514389896938,78.49926495372569,66.5153613443221,53.04854612589586,26.748202531299114,-5.378189472056799,-25.099789611934078,-44.82067206271785,-71.33075736758602,-77.30838585907374,-55.4316297928014,-24.822945021849172,15.63486489387801,61.20376277878884,82.46177866993378,83.5585515967333,93.7714587532055,103.0008448713049,91.89886192981055,75.18481758093696,61.78414287233775,51.684292724186875,68.65547560183464,113.30696500826053,138.73716466398932,125.65739603126863,99.297312567394,70.26979682849176,43.039588154104266,35.0337876620235,31.409396234743593,2.7338306479103434,-31.41223192279589,-44.84486547677675,-54.42613721987688,-68.56899738615768,-75.8883101018925,-89.08445004056225,-112.57655401992031,-118.70841951077753,-108.73266519664517,-110.26661533978094,-116.15819558802717,-113.41344440107693,-118.13987162356257,-128.06145027797268,-124.8481079157443,-122.6017388635236,-131.86343210586483,-130.569322585505,-120.12522287663873,-123.65932087402058,-130.05135637236663,-121.56322656092831,-105.26934910419072,-73.84648905008379,-19.388776514366423,23.071819847903754,27.617884195410376,16.427162732594706,5.076201245365632,-6.836486235010771,-3.9976213602348,9.902213764570373,5.06011085629877,-13.708614007016239,-20.614693941378565,-23.08096348422559,-28.770730652645245,-21.110299345431,-5.005990610838594,3.7673763938127887,20.429062624163542,51.57292451243363,73.01109175789466,83.63570836583266,99.32163457838361,105.60978337819259,93.98373399905054,86.34010540494384,81.21871978165144,62.44701620250564,48.25356585131005,49.96811260327883,45.997671747947976,37.65649366474183,40.392328297480056,37.635511762787644,22.921474726316518,19.708843333566637,23.195643494681,12.958856204077655,2.7069489871493646,-0.01515560420646267,-14.310028968230508,-33.80910531900992,-41.95294410190673,-53.46187928943541,-72.45378649215138,-78.13947575654622,-76.0569203537618,-82.8516175937835,-84.27083946106971,-73.0521168622948,-67.38266746028326,-63.13114296700866,-47.12556287676008,-37.15729683686116,-39.220239249302324,-31.787118415803263,-21.746467415747333,-28.895643316673763,-38.95824939810015,-41.94291081334755,-50.2211194612149,-51.26987460440027,-27.3645068404433,-1.2483776800540225,9.218341900660008,18.665421627201187,24.134477197855876,12.877699641401247,3.350394713546793,4.901644051824871,-2.1348276601371503,-12.24624133569854,-3.8939144368692027,11.23421300006815,20.76623794651249,38.70097063251782,61.72833879760799,76.52573377813422,101.22910976571313,142.4840313433244,168.69520526964152,171.11662844852984,165.72740932313525,145.91664026921455,114.65837335516638,102.07993277814114,107.64861406888718,107.92099581926627,108.33371383594054,110.69487211124888,91.87826308744009,60.226277261499206,46.59006803227463,44.10491787257121,39.09333765729593,44.97745344659987,54.873042988437504,48.77427798543965,43.99405618053773,52.572371416989945,48.110692726891045,25.46172393055237,3.199101627460978,-28.490373684479486,-74.5851956471755,-106.70381325923412,-121.50304653407059,-140.39214664446342,-153.32401451233767,-150.937721029669,-156.18946120771685,-169.92730534307233,-172.9270171164465,-178.29465221839217,-195.01747889754824,-198.5319608031011,-188.9735109662881,-188.51816270501516,-185.75570843480727,-168.73188038157696,-155.66815522497123,-144.5840770161745,-119.37888734062932,-99.48355154019697,-100.01009996952456,-99.69286087559624,-96.37725793834773,-106.38109001069853,-113.98130123046663,-106.65670760931458,-103.79603070297239,-103.71369110232871,-89.1719523794228,-76.68406694023525,-77.69573163502706,-70.12092553385125,-54.294312403792674,-48.75623490158705,-39.63019584162984,-18.90523546754032,-10.696092507786583,-11.868669572413353,1.0150521937171568,14.680388745598556,16.25773865730207,24.837225629086042,37.31251619224117,34.012455291811484,30.549433635581426,38.69232756980469,36.58230090375248,26.744818722060643,33.32951810884064,46.18830346337167,51.195046329255995,59.803727760767465,64.77317266099382,54.29976131439581,57.605534071242445,93.58287952548388,137.06496562991012,174.40608846413863,205.99863175291574,215.31818819156257,207.48094502248435,212.99954908429612,226.66729924154959,223.38490851700604,208.9366487151582,189.28589823382742,154.7057892975155,121.12991176927457,107.14365153442768,94.5292213938831,75.95175730885406,72.4929242095952,79.62077065684599,79.93769386085957,83.00371541711908,88.69089238147009,79.01343623618286,67.46111357243817,75.86193188818619,89.28293892694309,95.9221487004788,106.48836516515071,110.03300455126177,90.55954739553924,65.7691810924646,45.24908155829773,12.246891913349076,-25.51620767598511,-45.8159273142766,-54.04458928219316,-49.523172428276624,-13.371055589197196,36.89942936134738,64.10671933640003,68.85144513569983,60.281087166740484,32.513244196644635,7.305419740789168,12.487572803829085,28.423049816733357,34.326751985153514,45.11797800223925,57.571026659401895,52.782827370547764,43.893237481047926,36.46970521150267,7.7143395473083105,-30.240977470821793,-44.057657119042375,-43.81451353903471,-47.844063000532664,-48.21323387024985,-53.72406065416074,-76.82862137406588,-92.25144791563007,-86.59950294071132,-84.07536864834921,-87.37355890249256,-82.27108406833098,-82.78886744814633,-94.82393130151272,-97.90449999256919,-96.97453912412125,-107.36832035200072,-110.28265710314233,-97.70263978212336,-93.1900380228797,-96.39841166557468,-94.07368500035224,-100.96937681315185,-118.57905331528794,-122.54166350558778,-118.14217339227245,-122.90258567166352,-121.37596944958587,-106.57362464290603,-96.53202391518977,-84.67602326700154,-59.134590608810285,-41.58710615625477,-38.198276644495415,-25.893390763166558,-10.606291784031527,-7.556469076246088,2.2683058972067487,23.224438514226073,31.331912125705312,32.893507883410514,44.740596359830775,48.903394695519495,38.95916117994073,37.47365349949379,41.757915648852105,40.87815133413132,54.30817932515458,82.05981901543983,92.56244011178232,86.44639354964352,84.51432315051426,82.19296013850797,82.0875044642682,98.65553968910898,111.8144207844367,100.64892817041101,86.72575562353852,82.94029168950254,75.46736053209244,71.40971350067892,78.77786161013898,74.32238686585323,53.988989023541095,43.64471729701974,43.24878213199839,41.11936631337214,48.558861093895764,60.96169194589173,55.957948132768514,46.10672136531217,51.579968554474384,54.384725860841236,43.13504325711084,32.228903214132686,19.449629816032676,5.156703455108483,16.330988466652315,53.46884703419597,85.76918371574877,109.26081479924619,129.45376854116208,127.73576583121908,105.93265257392585,91.6505658974896,83.8834226912575,70.45052996207835,63.674859885780776,61.21998205751676,42.131952495364416,18.864686474330824,13.588934573676768,13.7955773125984,12.579694611584879,23.714565178346437,33.59679635656336,20.826724715010275,0.07336887925323943,-17.222735035444416,-39.75500712783272,-52.899680448790676,-42.72869426958435,-34.53326364767804,-41.445455646224254,-44.98375590243766,-47.92198686673939,-60.9975557876185,-67.35356176587916,-65.59737494079462,-77.73185963231725,-95.62297774465463,-102.86646924360258,-114.1868481844165,-130.12215697572873,-128.0707509188276,-117.48864795279127,-118.78185027389749,-119.37008686033558,-115.3738726479155,-124.0557561649695,-133.20132180075996,-125.6737933451071,-121.80424503114345,-129.1330458350193,-127.19303423024618,-122.7923102290807,-129.20868971517095,-126.72846568352246,-111.681478233658,-106.51745945975684,-102.84176239312208,-83.50765133197514,-66.22488457860806,-59.63780800158016,-49.06871116618275,-43.37881879687151,-51.72267152850336,-50.058012844993954,-34.04727320174872,-29.393082475956533,-31.78516875284934,-22.264141153303928,-8.8859582912026,7.974000958248916,37.692275501907226,54.39422377813877,35.903775282207626,6.997517772634299,-14.013372646592568,-32.23592650475142,-32.535082945339354,-5.4822406702987365,22.424783469916232,41.05566724457099,67.15469037276922,92.0449810163484,100.97115419186689,110.69332158756451,125.42943670649257,126.05439636976232,121.85151713405648,127.74418879662059,122.96982789016951,100.2217028871033,83.8165288416204,74.566726963717,60.01915196294961,50.408227179524786,41.33463825137159,12.497583479710624,-17.902355926419748,-23.929553096031537,-24.522680705848227,-38.91548982399871,-58.778359738837096,-85.39444178778525,-115.08175859978844,-117.68444245846263,-90.84697602888772,-69.84995464509626,-63.01841905581952,-57.561187749471536,-61.84834689959946,-72.25481959317561,-64.29151176559051,-46.452079459254,-40.399258641214566,-35.05673648649126,-28.07823089478079,-38.42187084266568,-53.198573292401605,-51.694318919318206,-51.73343541360042,-63.106862263024475,-69.59048232570456,-79.30016804147346,-103.0916940172387,-116.47092904867816,-111.02890982515618,-107.71992649948879,-101.22335519269862,-79.93712358915177,-64.80100739563615,-63.281932285633346,-58.332018752761215,-57.014370120068975,-67.13899971396464,-64.91685214284419,-46.06848105242646,-35.473054878150364,-32.134458464933175,-25.344120966134064,-28.010012645263824,-35.41003460952632,-25.150840923917837,-9.430970788281657,-4.997393033648096,6.588759031162629,29.20797988107199,42.565506911732484,53.482181545041406,70.69130801802356,73.04481775206376,60.260857444187764,56.20018780586318,55.027394269215606,45.29970190746774,44.75037649408192,53.575769657224406,48.62760835976859,38.81100860597825,42.12094500647273,43.05340327600726,36.18809843015943,37.692028638619476,37.94994663354946,28.37213076494016,32.55588595190287,51.28597200783058,58.01621986189329,54.131126542552224,48.79445284586171,30.899263822514428,8.020714325429438,0.7801509150904914,-1.8124432755542847,-8.807081063395607,3.7112212306623347,37.48672374233689,64.98629296470587,86.89611816441843,112.63383306451038,127.41480395488833,135.90434627540506,156.88452876856903,168.65489298085546,148.1912860789949,119.67382511953234,104.02683146248803,95.55882378542405,99.73146012778402,114.50457705726721,109.7354191996753,80.99068609580084,55.830391091103984,37.01562633535688,18.428090953963142,17.769512966898013,34.03723861624178,43.17651594622615,46.89149230250554,50.640268539467115,37.66353766166371,17.463740874372174,20.670259936546554,38.21095018552635,47.0806799795011,51.45546558042207,44.57059526572047,11.832197750392819,-22.20595979227489,-34.34463133182528,-43.29593382266173,-56.94336424821428,-62.18279634442892,-70.7781543573451,-88.79306938236567,-87.51691879638273,-61.76086074542429,-36.81982011484737,-13.119015651956381,12.48348416544949,17.99741749917515,4.377522236759304,-4.517270995973517,-14.978794337081332,-36.59786871006933,-48.211049689071785,-46.4488421638897,-50.41800550574618,-51.26224530161526,-38.73153012342763,-31.51773444797272,-28.66331506098681,-11.352665330522456,5.968976508204573,8.708334590100907,15.349819708743631,26.568542730410925,23.627379905824064,18.25628164456287,23.22783362039181,21.633654526573572,13.689719395075432,14.758737540896588,8.924664936544595,-14.315125833641627,-28.402936628945284,-25.603160846421652,-23.700611497532474,-18.169107592948954,-6.4750132769274185,-7.5269134383226435,-13.527154964195374,-2.87026918659676,8.015761813184017,1.6878371575216313,-4.742790450028941,-4.720231491470809,-6.305078008432283,4.309115301876306,29.3787989643179,40.421649257047456,35.96410211471073,40.52761942498712,49.793778798510104,54.54933460723584,68.71550434643612,85.38167504621542,84.74390897104311,82.9646893523694,92.45685941119385,87.87063900741097,63.04545123599975,37.808365642225226,9.9548702043175,-17.962225586947053,-20.404237996613773,-5.337489958405816,-3.6035693813284304,-7.544538073661333,-2.0049382882808056,-0.6571245636495194,-2.115189576772754,7.151599258001891,8.976262394546463,-5.981617607748949,-8.640067931938507,6.5850838635433595,16.61387596251178,24.363882950355496,34.22810563594675,29.382601140474385,21.430929075623517,36.17838693011101,55.48362211817234,55.05609774973924,46.41014652751126,32.88327136744742,5.839920729344919,-15.170274605125945,-16.98992271507597,-19.810552453449798,-25.188931843343486,-16.949409755642208,-12.031232709617106,-27.907161575888743,-44.3191371805831,-51.03315404367661,-57.5830584797291,-50.25062306083577,-21.994163282577063,-1.8755588419400855,0.4325156280455893,1.9682919969562123,-5.346433614958502,-27.884038156454,-39.52741128186585,-36.97322276147846,-44.492502354898946,-57.396014427698844,-64.96435645999425,-81.37605052369159,-100.27352930324194,-100.29938337424018,-96.70802794728559,-104.63765600732889,-103.83548625213051,-91.75809136627382,-87.03476701542387,-80.3776097049313,-64.5083866123674,-59.90071322326061,-63.32734816561309,-54.84558877175849,-49.013113011293335,-57.128463277547674,-55.54715648955579,-40.13236826795469,-29.23498916368792,-17.61178309514482,-5.488833283309889,-15.90022531840731,-38.664856739986085,-42.76137944555714,-36.86808383170616,-37.63663620391376,-34.59367690012642,-31.446188422953014,-38.69118907021508,-32.40155141421181,-0.42161368100727614,27.28548914641006,39.31958147660824,47.897512960368125,42.65221874100903,20.883905724642016,6.537915506528282,-4.459308670400639,-33.44007367434144,-62.053838003706424,-69.26459420337542,-69.26089742710411,-63.29113559331553,-40.779380109893935,-22.024363959043217,-17.533742280302146,-5.755709262303801,9.065469983928407,7.201659978296568,5.437151253280761,17.894777724634512,24.875418403936827,21.163991541201174,15.773211176799002,-3.733786088769972,-32.57537878857217,-32.39052508815753,3.3207865521211275,45.68324383061809,82.72852248555915,101.09427277573978,76.03407750868365,27.7289986069893,2.8552971203605404,0.33939889408761936,-5.006882001733505,-17.065071272351418,-42.48140445502381,-77.77478190600411,-82.04596310587011,-42.296448548005664,-6.375822059924651,-3.8745536830493634,-17.636131057096147,-33.42625266617413,-37.80093981356026,-12.90245717266035,15.829275395258719,5.688239275710658,-29.96325510601257,-58.561090230455456,-82.60642768614264,-99.48252417646071,-96.3474258255388,-92.50163403311944,-100.53518414099351,-95.35301923779386,-74.7395818066486,-63.10282945314255,-54.41220714319008,-39.11821699257517,-34.8222957044971,-36.79387611258805,-23.85928800235289,-11.711070141786635,-15.619324929298745,-16.15135129356557,-10.483897008656928,-10.965255981633417,-1.4280601644000543,22.547649355323667,30.53282760529682,19.373818983046295,12.458696388481304,6.714051978944991,-0.852146347589223,7.2817241143568605,20.01958881670876,13.863811164749675,8.464853297148002,23.95642905290494,40.79112534859399,49.604414927356416,58.084033955690415,53.41424525440855,37.33740632335429,43.81151315665942,75.10758141864375,103.56682419819757,129.49573924448913,156.1755320465607,164.23289275988463,159.6292084721793,166.4020291652913,174.66452181121792,172.60707498080788,175.76946226834897,178.86920094835537,163.37688536677842,146.3448413030086,140.5574202848351,125.14983076737346,99.66991468314725,80.98605500100554,57.71516531946304,24.98669407975407,4.880207780652102,-6.237197586956532,-25.968562598347624,-36.4129250919083,-25.22108909540025,-13.315131728406453,-2.6756430434618634,17.96463237353969,31.232546986906705,28.200742575172654,29.125385293567238,32.610007544945866,22.25035645720805,12.442888835677211,14.225226253736329,8.899696535600665,-1.6710649363869257,1.8785560776461976,7.697601966551952,4.195782978719024,8.158835562823251,16.30425002489057,10.749507763929142,7.806538753470457,20.155221113500335,25.154792221230686,21.884070819622615,34.44363738411723,55.89488722146402,73.29333291781653,97.64361042897245,117.41833152565906,107.8918727059658,86.18346579599049,73.7822850994266,55.95673966010298,29.899763388393097,11.70299152599041,-8.705995413736565,-39.08390025911292,-56.807268720027395,-59.096312640460155,-63.6093973612527,-58.352454295993475,-32.85003407524425,-12.151935523001473,-5.233119876260405,2.3831079939564437,0.7164376012317473,-17.13009364043292,-26.53602959125082,-24.820935985298675,-34.08950704001058,-46.88913158722135,-52.251520875107964,-69.53823907243759,-98.82225423021902,-116.0838308476351,-127.66391749320854,-145.91859381423342,-153.64495782725436,-151.93536143858452,-163.51274049399174,-177.41386025348874,-177.15653751711528,-180.8129180595794,-191.58251877595524,-189.8341313279085,-185.80249156736988,-191.76532909330365,-186.50656414914013,-167.58534596248518,-155.64788576047465,-139.89868841358367,-107.51537306017936,-78.68230940066185,-55.67777275580031,-21.653717941451752,7.350024199512555,15.231982485098921,20.054094047622236,25.122273613882612,18.500467001112995,17.406057674682295,31.57622836477482,35.936291956297325,29.92250678659286,40.32806148243106,62.91411086433426,83.85382277453074,109.76327221451882,126.88948596643995,114.83034194884164,98.35517624118435,102.69384555457842,110.78993902184006,113.12087079730561,119.03707987363954,118.72208954458932,109.17672508365257,112.4967641850012,123.8057155805042,117.65996010915904,103.35122573910968,95.19220442415629,81.29171073317983,66.94095721376944,67.15757476638976,64.99077991846424,50.987932930999946,46.382482580603515,50.06407204004546,45.377918032563564,46.93721330668322,63.59193865735314,73.13908244095659,74.70622736359435,82.9283885534995,82.75369482390455,67.22074400465897,59.901112278303685,59.531588868945676,46.10834505767741,30.675543038548696,22.067852009195235,2.538945603445134,-16.88257050968642,-2.40656818756843,39.325509723668354,85.02031587248742,130.36589606971174,152.2851136556344,126.38732320888593,85.55192094720292,69.5470759259957,65.30654048709789,56.87520993342889,50.45154830240995,37.571472836150164,18.047479384932103,20.377735440559206,41.97033749650797,47.22974402005694,37.56309778755171,34.11938180722044,29.560656005578046,23.314082022107563,28.160782559159554,25.790421150052392,0.682525067754371,-23.808879592282572,-41.54480280106631,-71.85318421773037,-102.59386121401522,-116.28430233024726,-129.73035340744943,-145.63019871791,-146.5967120781021,-148.13557716043582,-167.35477020126126,-182.42790422133083,-185.71045081953002,-194.34185673153777,-197.7821622722476,-185.46585157339248,-181.56845093477864,-189.97533152453204,-186.9006386930795,-178.5057261750532,-177.96464834052853,-170.10920186633732,-157.88917823446178,-162.0701425821095,-168.10685636726546,-158.83732020838283,-153.16151762109936,-155.85761923274953,-149.051127790659,-141.7854086751738,-144.06576272442646,-133.7574069181491,-108.38340813489516,-90.92794471964977,-74.21370195960154,-47.755358963629675,-33.730047641437544,-35.43757901078745,-32.47188845753381,-31.261532625072157,-36.36650853302561,-24.685348114795833,0.26099188263746687,11.891399476260258,15.601841923041013,21.71118041683244,17.212335139608754,9.251003855227836,16.888622092829632,25.060820542673547,22.464098170977735,30.11459611211591,46.95465228423853,50.19067782543071,46.50540985998202,45.37079388714841,34.35379457526792,26.067094620966287,47.39801680342782,83.3186799736855,110.92064845401681,138.8339219986127,163.51729847442923,169.17712552005074,171.88761821727172,183.03886294500876,180.32485322595008,161.79696538010563,147.21312496238824,130.77822396031377,108.5236208623365,100.26084828139452,102.88494715259677,97.00971671104715,92.07343462538645,94.7045779345672,86.00514916169405,70.41510508816759,68.58144782218082,69.82429687190437,65.38764007123358,71.93921839128211,82.13509132118013,74.96198207019651,63.2590211621428,57.04279598028117,39.999642270991565,18.929977486724574,13.872616654064124,12.662730535664556,6.032916962667186,9.923906241366614,18.807994033646985,14.883504704733333,10.86563868596922,15.863491792504922,14.572802338603662,13.798982529280423,31.058925529674013,49.672563716100186,55.52329305819868,61.73537742162817,62.02297585108188,41.94438304511824,22.122867819862712,16.20219446602275,5.3196725784107635,-9.719063582321192,-13.376445236767204,-19.38135445025771,-34.60364905835512,-36.82986881123188,-28.493864281691437,-28.242753170181185,-21.783478029713102,0.6644293430945947,21.183342071333758,47.235269718563764,97.6132876195718,148.68895372134878,173.58550071274968,177.4351798606075,156.6995586960062,107.63679686779106,65.5723546521603,54.06435495098118,46.547314146648056,27.74108292551969,9.547905161343134,-16.374374072802915,-53.090824383432036,-71.10622440710243,-66.14857845336022,-62.75587531427004,-54.417493759830826,-31.5305182541428,-19.714309305743456,-25.58228391075439,-28.21564961784524,-34.7645740725279,-55.033392292176096,-66.50122455993377,-67.30686922472677,-81.2592102592815,-99.64115740368914,-107.40594682494088,-121.99826021169423,-144.02008014274858,-151.2932031960615,-153.16149287186354,-163.62395574704232,-164.36288932182072,-154.81112511232786,-157.69445050299169,-164.38696759882885,-161.61405287757103,-167.5231110758187,-182.2575553346112,-184.89639415244503,-186.21009230875322,-197.85012624378325,-198.01287457524575,-185.022548044455,-181.11156491769225,-177.94474221657057,-163.81940358876105,-155.15522284776804,-147.1413283631514,-118.40350213342006,-85.89138858821377,-69.35866939476401,-53.410899329425895,-36.507483533921196,-33.77423246801804,-30.880251029221654,-16.798730358990497,-12.715136941810405,-20.388056812439025,-23.037212917422227,-31.171322080488345,-45.82352853877403,-34.31903934395436,7.534901243919709,52.79220678099611,98.44990506053033,142.777521838112,165.4887721796647,177.48817707927577,202.40745718073438,220.41398188006144,213.7353183455583,203.15846176251387,194.85157556633698,178.17469029616598,166.66254369807828,164.8300491436022,150.68858896088005,128.79835674792184,119.8551696315974,113.28776432770412,102.93291391060689,108.30475348840042,124.12650686170224,129.52057613577261,131.84625390888684,132.70372037353638,113.03641297866412,82.64356250973746,63.25550725020885,43.098988817265756,15.953579858013711,1.7185492777422775,-4.197014988189519,-18.979793221792196,-27.52592800397117,-22.793131972332333,-26.549261644406045,-35.976642232406284,-35.03968368777288,-39.03678367664827,-55.411478635194705,-63.169293713216824,-63.53459219729952,-70.28652866767095,-68.29825668594047,-52.190674646857474,-45.57794840754972,-47.54809172026817,-39.39729679945269,-29.07661865814564,-20.96755954327218,0.14843599177907585,23.14240565892101,26.721958477500777,25.0360325515541,28.317279034758815,20.284517131704707,7.2079534072130595,5.765008187600593,2.2704490827203956,-8.077443100973756,-5.560371920699142,4.959968488941212,7.027074755743595,11.8299806187653,21.80997057903371,15.982830037386734,1.6507254592938994,3.0274070968839952,12.912125305830584,23.768642369561896,47.912393861891886,72.18734114274373,73.11128338193684,63.462538656544325,56.93844736315993,47.110910374778804,52.53050501082712,96.87833960122074,152.97799261534013,184.36642096345793,192.96753144257,181.62499422015884,151.4510525333231,133.70119515801912,140.52002605732943,135.90203800207436,107.22217529990223,78.38381865205346,49.24599637560884,14.43755341586138,-3.62761988077885,-2.643050216886107,-1.8266866452451747,9.264156729035266,35.46602262971714,41.69559540901702,16.37513914131678,-15.944938313368947,-52.03195348593971,-91.62643841333922,-111.74561644571119,-117.5543146640627,-136.4695451418221,-157.88423698902452,-164.3722536545115,-173.30988246760208,-188.2433095291737,-191.34273082748132,-194.07794203354769,-208.44297549069574,-212.12580526668114,-202.91158045436148,-204.03702852813447,-205.16098232049555,-190.66296004431499,-180.6240220343639,-179.66914569902067,-170.50194309845406,-165.66467383461355,-174.6408123972828,-171.25855768244801,-153.07931272668216,-144.85166709913642,-140.2227016376365,-128.9150079179489,-127.89636247896726,-132.4787600030063,-122.49364433827404,-113.08455771117875,-116.5008137223732,-109.18717114856598,-85.94881331782098,-65.01544863035807,-41.980332270609985,-16.60356572859766,-13.048872716187283,-26.12701319504267,-27.577552370910908,-23.729044288749478,-27.426515937156758,-24.052451792835956,-15.499827818681796,-17.359873768231907,-13.262930276663518,8.353965385361871,23.901389653166724,28.356008552330124,36.92449049974472,38.24905290979267,28.051673393325817,35.47646304998424,67.23670128645757,104.23788688539447,147.85160096779944,193.91860997401793,215.40474648273587,216.2142392288671,222.97324273820823,230.0197166493662,228.09199767939026,231.09321362105368,232.72692664826567,217.6280549391119,204.85197893813987,207.3792294239953,207.55262463998886,206.53851837232457,212.89272816927465,203.8836166271082,172.1029416387186,143.51106516387756,121.31077165735827,94.99468612366428,79.70893316373873,78.64083492790776,69.86067338428231,58.130598703644935,59.36988234594961,56.53655331647502,40.94512919435086,32.288119733770806,26.98578818453797,10.845582746613132,0.32833723947553306,1.6556286118137673,-3.1321483787552755,-5.483348511616022,7.394004232316531,12.810590769205128,2.472834374177725,-3.432000730147908,-8.874375234804303,-24.366839354823952,-32.9179741359559,-32.94352330786944,-45.573713007239675,-62.17213412868104,-63.91092569545427,-63.43471044770851,-63.41918666860927,-45.08223218909525,-21.135004621115975,-15.03983039817318,-15.019558794432664,-12.458324923883723,-18.932079668219153,-22.816237911415026,-7.589249918937442,13.928652310274828,36.89720273576797,65.50113974432443,78.30751990503667,66.72148558744009,53.01048878567819,45.150607193931336,42.48479214250143,50.285457275452245,51.703575034167436,30.142408291763005,7.729914958212179,2.248355754513316,-0.5025976608197693,-0.22241735176904393,15.19236556862005,33.778944488991705,50.22729901647996,69.85586446284401,69.1257649951306,34.14326538181848,-7.163646807401172,-36.3990018689733,-52.36631119615454,-46.22839220428243,-30.815158662147375,-31.604486087197486,-37.84375757952859,-35.593036582986635,-42.248953273018955,-59.315882411101306,-70.92423933158227,-88.03022963819939,-115.15585348549648,-128.03752367926467,-131.9731369354156,-155.01385171329932,-186.76524786687787,-209.42403070435878,-233.5535626908639,-251.44263662833276,-243.19457358618268,-229.21024851737826,-230.21592593582946,-227.3850518826217,-214.5581798331367,-204.2097894730947,-182.25955104356487,-143.58356702363704,-119.54162465917227,-116.50822321519831,-111.99713754996955,-111.46371186097227,-121.60997187290154,-120.13091573679698,-108.90355956153493,-111.6258981386479,-116.09181800394724,-107.50249751127282,-104.94113158200925,-107.39238809251428,-93.8177461995898,-79.30727767415583,-80.58562764032149,-78.18812177019416,-67.220052452455,-59.0438735815465,-37.41122922556208,0.6376946887476365,21.42242797889324,19.44492568575016,17.47130775638177,14.873236345756776,12.612345551606776,27.875927133057832,47.66894447154637,50.17108758212059,55.43313422520658,79.30680582647963,99.49202557370566,108.57807361480282,115.69148464540339,109.2733828865806,94.50523803324226,102.5796883021712,125.79070548503071,132.30886397565715,129.3813098147781,133.9679771609666,141.64504554210663,163.70244499028877,208.85318691167276,242.88780883683992,245.86124025522875,242.61285479904492,241.43712066171895,235.52821830879242,241.932623280993,261.43658940844665,267.1023326209359,262.5569973543571,265.6511365655768,259.78370370619615,236.14355813400852,215.363809645248,195.92908366453665,168.4851816988339,153.90003698685766,155.29328747816274,144.95969268473152,125.13155725888592,114.50822726618614,101.34745347448666,79.66106141666961,65.94693958571425,52.5873282396811,27.002354841762607,10.966616890613935,11.378753671453088,2.726654575222325,-14.625257804354739,-24.791251474539813,-37.59918493916307,-54.79442851568601,-60.648293513889485,-65.02534304348025,-80.68815780504629,-88.01058201024594,-80.23961944971063,-77.63523636502357,-76.09529762496663,-61.46568237261179,-48.806766208226776,-44.17720319798477,-32.50550384829779,-23.763285738760047,-32.57241704862588,-41.41286105226927,-43.93760726682752,-57.93120693352436,-74.27328814085453,-72.12292227520862,-62.24417303745498,-53.23449678811764,-34.86074413014516,-18.53631564522889,-17.785022188005463,-12.51063261482546,5.893275506046959,17.170363207078218,21.285792881271426,27.10265533326254,17.015918906686306,-13.531140991413073,-40.1575241947573,-59.146552701544465,-78.92886337563216,-81.63034641157111,-62.96436912356411,-53.66197455026463,-61.4788422136894,-70.78089951522543,-88.38606631887134,-111.37787497791096,-106.63757656557792,-69.40339071615118,-22.493708283676277,35.23269542073577,99.14606570013684,135.0514382157783,139.03955720132774,137.22391835272848,126.90160885672769,102.9236863872043,86.83238722467296,75.73480848328163,48.227085462433564,19.249218240356562,3.8626929469677886,-17.046176634727747,-43.35281074402569,-55.06499428311403,-64.10861991276006,-83.32975984130314,-94.30239152198261,-97.38304113670854,-113.19905127411825,-132.23819264589508,-143.9941299251097,-165.88536669697186,-190.94230626986163,-190.890209242457,-175.95293624043458,-167.44165942391402,-158.3922964387582,-155.01071165581942,-173.77652651185332,-193.6743680876187,-195.35226809678485,-196.9483832432922,-199.3539172837317,-182.69933141135078,-159.8902119410949,-147.8822086832109,-134.51840663086534,-125.28614936279804,-138.31584145796415,-152.7271202468546,-148.6061140014395,-145.3686015803068,-146.61842427531045,-135.47836116213855,-125.15127957151974,-125.62099485743181,-115.439807042855,-98.19355251220995,-95.81724242040154,-93.52497277603635,-79.58961645919229,-75.62237876147694,-78.47712840424079,-63.44145751303931,-39.8855471375184,-22.148990306682244,-0.46305791625282655,13.412573453251172,-0.5516107360609306,-17.567658628051802,-14.259260777173129,-7.924156814633616,-1.5196489501342425,18.177708600401594,34.13050358042853,35.27551764546825,41.402271898140924,50.07348037007719,46.88870426935242,53.24527506656066,80.9665972035704,104.95710938054368,122.26175232345157,147.79273070861086,168.28011018151494,178.37005949906404,196.8230791814329,213.97338566481574,209.82853748485704,202.61300430507066,206.7503673610036,207.95851307532968,210.88625164479316,227.2484101155503,236.96948290937195,230.85645881860708,228.02788726729574,223.82905501904628,204.03487600725816,186.16786533356512,178.14359633582447,161.41280877464285,142.0036675473047,136.21188433212834,128.43443276561644,111.3066760253145,102.38285552089812,94.45873786866382,72.9989703189133,56.19557990895386,50.704033031722034,35.59489952740586,14.252748525708315,0.46663663074768547,-19.169422066098992,-45.18692702694369,-56.586942215154394,-61.01930066768034,-72.06107659510579,-71.55619920789677,-55.89196454514732,-46.28122785664739,-37.75720859079227,-20.71531157927685,-15.761495246784897,-25.910763118343233,-27.909353266321546,-25.77162270580317,-30.809071686328775,-25.649372677736693,-9.103019651460547,-5.6645717405544955,-11.160780221925938,-8.704687876059232,-11.146751698532304,-21.45370098903424,-17.84946583417227,-7.840751909517567,-11.633795276354444,-14.781508514227514,-7.570552265885546,-5.11773732889289,-0.22502905604275925,21.447955646217004,39.15053082778697,38.67490184094074,38.02820341157507,39.755428806733434,34.34553577054367,36.23290709844722,48.3173272819554,46.18208651588104,32.81496317810667,31.788764977061543,35.96039256201429,34.110744029342015,36.173669254962846,34.94754683534407,21.89536600357812,28.855345580709166,73.72579352560426,121.94378489487245,148.71302253398105,154.13412300900907,126.31858747982278,73.70241900011767,36.621572574621034,21.84044569190362,9.057264506954894,10.22690726196979,36.33747035510249,60.57691738962289,68.96305511470372,68.90196322206522,46.86319903471269,-0.052883402894094544,-38.275292225818006,-59.20625979868618,-84.99549198199948,-107.03684559076166,-110.54971499492767,-114.72594402922273,-122.97201088398194,-116.09691564307292,-105.76246007039238,-104.77577878605226,-90.84416428836892,-62.73856578832678,-49.57049410905116,-52.231763543813344,-63.208717862931024,-99.70810506233308,-153.8912205336342,-191.90423082226215,-214.9022620984682,-235.65380800148736,-240.92359653705788,-236.4473586310059,-247.02222400843033,-262.9898328309975,-268.8468542302315,-276.13323181877684,-276.44792171512313,-247.52856390473698,-208.12658786679717,-183.05172294249547,-162.2890088983219,-144.60190872736328,-140.35775448355008,-130.5364124788565,-105.03114917486332,-90.38218327896078,-88.90161765651465,-77.80925556940683,-66.27766837980774,-64.08980396336831,-50.58882485517263,-27.917606699083855,-16.5812713958807,-4.119902956304582,17.138386649689778,24.246139994803634,21.770110869655554,32.384769265507856,41.136373740535845,35.23774219751608,36.34215796222901,46.85133552337014,52.29497140365097,67.00836029036421,95.91521779061198,109.90850301919599,104.84196462861698,100.72101899627897,89.02752765566272,64.3503027405279,53.125618035484976,58.280944719623555,59.36561076827981,65.44004321630503,85.28145332733081,100.81971962411187,116.71798645314534,149.79628349741557,179.05657670240328,186.97518164020596,190.24613595682752,190.2576326412384,176.00023869234758,163.4080792286407,160.05973988559973,146.1292224087942,126.58044333409603,121.2436405842938,115.81776021066251,99.83841571173666,92.43107931211587,92.58207498772204,87.63479466495447,92.69672572714154,110.32205757821409,114.66889303185073,108.2753591648178,