15.815877919553596,15.888059015672772,12.925749104724721,4.002025042258841,2.9612395522231916,1.9238639423306043,-7.867078897258665,-11.009498051298365,-5.790104402098213,-6.253527124026196,-3.7582329234484964,9.697179443394948,16.694047480772053,14.161783735414193,16.044424638435494,15.353186496235889,7.594591491227645,11.62094011609697,25.874470635614113,29.125658846040245,25.43054498884222,23.95835937005631,13.857076625987826,-0.24300853755112062,-1.075059733992219,1.0089844266499588,-5.802023487960106,-7.055778572621603,-1.3680012606597436,-3.3673998401982512,-4.620474501663214,4.083505176934402,7.790306676577939,5.234362898797292,10.464403602880294,14.702946742559005,8.978473539946481,8.325816743729717,13.51763131828463,9.63623661278378,5.0519333956033154,9.292262124858688,8.237664660441322,0.9988854688912374,1.3195131909531626,0.7462844008455118,-8.777012973052551,-11.439351865168772,-5.270515517493223,-4.5542824671368844,-2.761149954032593,6.525882682555016,7.079640677849796,-1.5993166810634918,-2.3443949748144357,-0.5328632182127115,-4.305107761173187,0.07315739672650157,10.233907883601011,7.84386808340831,1.2185150503233713,1.8822896068038601,-2.570729188461484,-10.34800868037911,-6.344954986176814,-1.8894395496826588,-8.191839276473338,-10.088170551820413,-5.71008628437726,-8.444820072434448,-9.961133400365405,-3.5650232377035804,-5.260971776706567,-13.649272208220975,-10.967865355399994,-4.718745657694853,-5.8071086647515315,-2.7038515901554714,2.8009752702111825,-3.445174209413136,-9.862822270282978,-5.235997337738949,-4.676170654413153,-10.050783753269277,-7.859909166793733,-7.411085741490618,-16.56687368427259,-17.964930278783015,-10.343351761573132,-10.166445432087315,-11.62501319907843,-8.107346338274684,-13.509767733663478,-24.17198283136627,-22.171930525404278,-15.920062702228758,-16.869292733087157,-13.432514659645012,-6.0981211744633095,-8.323429397145292,-10.690523054027008,-4.630336969048694,-5.133780618724469,-11.952892552642608,-9.46854458786484,-6.18762901528808,-12.550637373026191,-15.424561784390185,-13.71452047424361,-19.116440272282734,-20.904478127831243,-11.84526062523366,-9.876141480959701,-16.17594773111775,-14.797250056085776,-12.147916200219667,-15.082045969140534,-9.775975628657537,0.9318505978578604,1.6330787443732864,2.5830733765237386,12.792476953903774,17.08096847677275,16.411134360506786,25.966724157214195,35.51362105916112,35.96672025501849,44.061221995477496,61.1097792160337,71.8694265506046,82.56085452882841,96.63455507031364,94.93311729238232,78.372729878038,66.87959089394887,57.055009160641546,42.0636991439054,34.09799849065978,29.07325423893213,10.853654128714963,-9.664590956798245,-20.07884993896785,-31.353264930262707,-41.78113834282302,-38.952627219041446,-34.793677971633436,-38.931900039427276,-37.640069269818326,-33.093394791776745,-40.261955667060484,-48.63127419724846,-48.05271385395232,-51.61875085826391,-57.84190927395625,-52.89279837134892,-47.08631632204113,-49.32853705127962,-45.63802080683294,-38.02312862033015,-42.280046465102814,-49.39580739458201,-49.1756071377347,-53.055680957797904,-58.50652537849602,-51.73059337018372,-43.48448717858535,-43.82692743119182,-39.90032798287849,-32.54775421842807,-34.100589055467836,-33.395595078039605,-22.45145584566427,-17.107340308502,-17.681075401378386,-12.684916771435816,-13.689977410473361,-25.14149578163761,-27.05841966373562,-20.18878812851623,-21.159504134967456,-23.205408531906233,-21.23685528885076,-29.009661898341207,-40.51108295549269,-39.0350444920419,-36.88897303035834,-44.82047593559325,-46.86615845934711,-42.09415325942287,-44.43109526184793,-44.52572474346263,-35.647597567709255,-34.34017710179587,-39.055203161804904,-33.34842791536484,-25.542982177470684,-23.48269402701538,-12.977351682896998,2.3233469894195373,4.982315002289884,4.790490102786569,12.65612890229249,15.74708797230206,15.130954631647077,22.9118480044529,26.63276223628218,19.36021954276811,20.843995466067376,32.555110951611425,38.15518438903084,43.77136757105622,54.668549466526315,55.62989276741209,50.234338642148565,54.61030535855243,58.29264085245151,52.54904751117222,52.460289046952795,57.269312615675354,53.583607673159776,51.06473660147898,55.707274297332425,51.622928512341375,41.642331314480266,42.244581017021424,44.907745731078826,41.89842311212408,46.71804749629375,55.44863226925837,51.98566593754123,46.87218754809845,49.921573165983844,46.97038395201709,39.00458092130542,39.56291023106073,38.42379947002001,28.900431162913243,27.87312479712125,34.783654338599945,34.20783605581505,33.822653968942674,39.845445858493626,37.46627229345913,29.6200073758711,31.33010923104886,32.43104106653921,25.84781493628701,27.493726433982076,35.75709734963465,36.03711600725478,37.08628011043632,43.902536758988134,40.813072004798045,32.12901733759505,33.777444715362975,35.02208010370365,27.855065217117016,26.85250495750461,30.03810020047235,24.7745597322333,22.192073535628104,28.53114733852466,27.543501213251538,21.104525014180233,24.068217657541418,27.074452794296963,22.58172361146282,24.301370514754623,29.15470017822842,22.614157471978082,15.39251399913144,16.65044913871625,13.358386451115226,7.166663411571929,9.410176880189674,8.32257132299334,-1.6494301358303995,-2.9601581564149217,3.007263492448821,0.9997297017897717,-0.7322275870198042,3.2114339840655473,-2.269280851606037,-13.555130843341157,-15.887837528735517,-19.574061337290317,-29.90852176599199,-28.68569781562646,-17.34148344295773,-13.018924595414543,-10.059736872206827,-4.544517832855324,-11.480549903923688,-24.812505953378007,-24.612280320199574,-17.85987321247807,-13.971200756808006,-4.0348876000055816,4.738896946084522,-2.0356112487395195,-10.581915901280826,-9.705108789703097,-12.508932162991682,-18.321532648770308,-15.976986046076004,-16.143641720753486,-23.605514844711248,-22.1003811439453,-15.497767421771265,-19.550079925233117,-23.991331411374155,-21.083409234700643,-23.950240532194556,-28.447873373762135,-22.286170722413466,-19.10662890310516,-25.838684098587212,-25.120645351413458,-18.142052825011007,-18.73386436324823,-17.709146679726302,-11.108365298114169,-14.875986155374541,-23.92119598354892,-22.33304606202214,-20.888900280517255,-27.225612262716826,-26.93048611488024,-22.442870866671285,-26.61756979070078,-28.546076684021827,-22.925249487312243,-26.51362042733186,-36.088966943487435,-35.61220210109261,-34.09999168267717,-37.87715211672478,-33.53234005689192,-26.52436697627413,-30.772909912940623,-33.177966545972566,-25.27762182920757,-21.856528201536428,-22.079336332805248,-15.851494226115317,-15.624727984081211,-26.258728740272247,-29.347751431656416,-24.916188328488644,-26.074169051566336,-23.750412949552498,-14.055221567403528,-14.120063964343814,-21.05882593269811,-19.61234843049383,-19.310957886652723,-25.270331966650296,-21.10621814031849,-10.901678800681328,-10.60697058671657,-10.626754388628086,-6.070954697663736,-12.468112623201549,-23.486636297484647,-21.780861246321397,-17.51182622127753,-18.3289798045661,-12.287910523783808,-6.018877940611461,-13.355266584731677,-20.48266684584172,-17.97945741180959,-19.003880154547858,-20.32786392299021,-10.472773154567166,-3.4081001752457465,-7.542203706628281,-8.294538574069344,-7.727125236202495,-16.814303755186522,-21.325125317014656,-12.833904898615579,-6.620607602369314,-2.229369315866439,9.091872319729475,11.994736892337928,0.5567476846899932,-5.129696664632455,-3.1630945780359054,-4.600935815386343,-0.157472533434595,11.445020341055498,12.100668460093825,5.030689165996646,4.295170052198406,1.003279315374623,-7.395369716073066,-3.991938860930773,7.17158934069483,10.235072365464013,12.402809703902536,17.11253332328171,11.561030418920529,4.0308461623093095,9.942256616412607,16.291491522032977,13.183297092678572,12.357824011224999,10.63848289823164,-0.9525284876250604,-6.463278985641075,0.7617431256672593,2.5678406758881462,-0.6707567206816845,2.7879712409645405,2.0803738501514255,-6.491070788033266,-6.660865112874033,-2.9419552862944505,-7.814775363556119,-7.40502442933246,3.669921651701296,7.085375227953229,3.661170573219069,5.025394245863317,1.6803201410463362,-7.136583044368983,-3.7964257223099027,6.169071674003471,7.0445782952822125,8.884361512253353,16.81885635884628,15.823288107783412,9.837912787860613,11.890747428220495,11.298271030862209,4.279573749986422,6.525094463087271,12.056198202624469,6.338556566680282,2.275611169719463,6.332644234969334,3.273764827173361,-2.006288408016908,3.287190682927055,5.879721309980555,0.38847145893541724,2.427817504608897,7.024917249916629,1.618286613540756,-0.35886820121113516,6.091381629742983,4.278453521815814,-1.4695980561593873,2.637011585384369,5.359098403572205,1.3177408270544446,4.562872554069325,10.42661053184777,7.245348497124203,7.726082653421473,16.3964849324033,16.359122278506483,10.421283258135402,12.136461442081401,12.096172842181538,5.375953841948812,5.414182979405869,7.9670541241464425,1.9980848479206155,0.6538980231149946,8.896135823442384,9.660431330892765,4.9973771305592685,7.123214391173276,6.115546621943738,-0.698079393885028,2.1598479742660768,8.988553145570336,6.282807827978024,6.156924891606551,13.920569851056483,14.761814550570893,13.235331826983572,20.343115009319966,21.546101823843752,11.141846147528536,6.543136599320401,6.91401900728312,1.6179654481571268,2.140121686153173,11.589955335339612,12.543614027415899,8.573505686777553,13.162158260431681,14.642269609308652,7.384594372542683,6.977113471753921,10.615609757967274,7.069282188359527,8.186341775387863,16.939055433210637,16.514702121676123,11.509746657169593,14.454425894211338,13.22567555277752,4.741397115783764,5.998995809529393,12.028253815804538,9.736964066379791,10.738202418977849,17.12679485651878,12.039122355500272,2.7708245699025222,4.657039616846055,5.73685274896073,0.12940176916769586,1.861564963333776,7.651487685731956,8.943665764354023,19.896748508905326,43.69568687653002,60.252297542741786,68.33125741504563,79.87970684832993,87.73804469395209,89.65592764814241,97.68419880515862,102.94433109894443,92.29779698991119,81.47918705199451,80.05012858916695,73.97168793189738,63.35662204382696,55.01079544161247,37.75832493895194,14.617390841575212,6.376836997458155,6.678693855778232,-1.8686643577749353,-10.400043553089326,-13.669010468310772,-22.393312420962076,-28.355604163954794,-21.877511990766894,-20.357847583268963,-29.329698206282682,-31.116392463010094,-28.837893969622066,-34.94863102508381,-38.744611848567274,-36.88537156392762,-43.31948109119457,-51.1016975009852,-47.181061222889,-44.72266166361763,-50.705575175376865,-51.23411534839221,-49.16016543828394,-54.14170145174917,-53.087295275854885,-42.76567165338587,-40.874610415692544,-44.33065288945446,-41.25197374934317,-42.89695342391633,-51.6662105191343,-51.521871357379425,-47.802814608102224,-51.49870235466356,-48.574057367930564,-36.42232664834607,-34.31695594561934,-39.936507381479686,-41.15563097820647,-47.24029396806169,-57.711349605020345,-55.23415498438489,-46.26832515136262,-44.66664372578492,-39.43803532062753,-28.746860003404993,-29.76548782709115,-37.088916264939506,-36.20355445905101,-36.15495944729474,-39.11847706214408,-31.90692654021587,-24.170488395968775,-29.499108081687645,-32.87232766313903,-27.668871925377587,-29.17225268394897,-33.767930876901616,-30.052236528642265,-29.480763623542646,-34.74967327509101,-30.076344817189522,-22.105970633688216,-24.99607558770864,-26.15431983190018,-20.06313671918992,-21.10458032928259,-23.706011253399847,-16.158899019868066,-11.22742905413778,-12.595135911248743,-5.954832402604293,1.7695225493634592,-1.1735378388038282,-1.7485306709081296,3.724969906788399,1.5824815810501356,-1.0689741389088225,6.658844161104753,10.761180327150647,6.709721716764519,8.576721798559323,11.320526595696112,5.747365361720242,5.461806373207006,12.471637291423043,10.511544611787283,5.292419285733175,8.664270456547312,8.433094425096371,1.6215174431071009,3.5945824238310378,9.415847796093487,8.779024971581183,14.047285571430676,25.960254790959425,27.124997969137972,23.072144784206355,26.040442732525683,24.342472483127885,15.54692888161841,15.012265200956149,18.100278345838596,15.163946977294472,18.009753369994947,26.833349644856472,25.075296303142274,18.974780430120923,21.22460686186951,21.112423537015644,16.282937072855997,20.348035769588343,26.134438272502884,23.05434614822954,24.673910015557055,32.71364498787188,30.240135834247084,22.924518243302863,22.80786708390699,18.623149448097493,9.38581613553918,10.839914568507982,16.17701730796326,13.755374067406706,16.186071133745518,25.32066709185319,25.10157492016423,21.855466616889267,27.470645922802067,29.19171917057662,23.787927978822136,24.976165352267216,25.47892090129387,16.000183190820188,12.536184964076718,19.27994410437898,20.907539463293773,21.388241335459632,28.494460639813212,27.49666998635376,16.025149600123687,11.335357561518705,10.875056082255227,6.562945781605846,10.695775207160803,21.731123226191833,20.30658734988645,11.507612027054144,9.261288332089244,5.889006615949992,1.7506446842762613,9.553366505380025,18.34651049582754,14.751873635479688,12.062915308225843,14.841696530012598,11.119802038250846,8.3280513848036,15.066325908560962,16.892622932512722,11.636350590762547,12.953203595691702,13.769826528157145,5.9778678423956615,5.356776849590431,15.040189885438476,18.831302639653572,20.06069142727194,26.494430125661914,24.28095814408764,13.605460645513602,13.624536965932066,18.339824433698727,13.999714971866819,12.718848080987323,17.728771312430073,13.583356566880063,6.230854914089701,7.000682110865517,3.0599210877051535,-7.166734644314486,-6.3922425079544265,-0.30107086001841954,-1.9060521489848374,-0.6678693679115175,5.308952757732445,2.3544335426450393,-1.5650460261228225,4.201343014696301,4.880064357153258,-3.329896185576553,-5.471680321312121,-6.282798496011286,-13.369154368272568,-12.046198545886702,-2.0255897714976503,-1.6598963737715002,-6.009884412520837,-3.103051348112795,-3.2290671239314017,-7.429177088463736,-2.1845719507545485,3.3929298383372033,-2.850988276794284,-6.498763544239853,-2.6144324551374742,-4.973715323065858,-7.77484350173277,-2.6701939462780198,-5.039736036361316,-16.22060131637606,-17.584766404211514,-12.536401664585801,-10.798246686586051,-2.3867117531308764,8.468249625164669,3.7380380925204992,-7.067416660392398,-9.230421259654312,-12.759718685002868,-18.40888649942,-13.617632647855284,-7.877712720378184,-11.417921876806464,-10.921507195823317,-6.043827528078099,-12.204017452668952,-21.069319391265612,-19.79875017816371,-19.177044815104722,-20.124452859019236,-9.50111276747537,2.39456253412648,2.398879508288717,3.0302429998092446,6.998126338799602,0.66701042670844,-7.722227189068123,-6.765484612776541,-9.512267761932998,-17.84775338073469,-16.798509004261586,-13.26996761386173,-17.664059208867712,-17.094733128151184,-10.73778584436889,-13.634112005450172,-17.26194365379231,-9.858039210442959,-5.0117646532690365,-6.3603443134418916,-1.5089534341375768,1.4415915311098728,-6.043956402311651,-7.727321975678942,-1.1357668630827567,-2.471220785792441,-5.957655020643355,-1.921549361923617,-3.638572751819144,-12.109380224750716,-11.380723064152654,-7.474060288948653,-9.883358026645718,-5.246504170775589,5.312351793306721,2.8373314700419794,-5.457645900858788,-5.193608609201849,-6.1868121745017515,-9.544967286930149,-3.8451870444834704,-0.4544858499832637,-9.04321991946309,-11.802399697527164,-4.678511368027162,-4.179664902964086,-6.763478946831218,-4.390602457361647,-8.731320506872033,-17.690352453948414,-14.872634686647155,-8.366952710099822,-9.39787554070336,-5.21015437237964,4.4831951180853835,3.4300808691823517,-1.417073965028981,1.1059024072361194,-0.6962548708371019,-7.164186261478981,-4.602314598967097,-2.9260954455935324,-12.467064666847426,-16.238652693421287,-9.86353673513577,-8.143630112045726,-5.374568209728027,5.284135228114251,7.360767359393397,-0.44222954563504446,-1.6362954672278032,-2.342990119608183,-11.168064376136693,-13.136636336381818,-6.455747132044776,-6.348047557279328,-6.566409155828633,1.161132220468355,2.41919748641417,-3.9920956366067717,-3.205182273973528,-1.7908856528864456,-8.250009464710978,-8.95224631629953,-3.150583024323134,-5.129341382934241,-7.233221100063785,-0.10107176198107748,2.764741577652286,-0.24395628172783201,3.936224050092317,7.359866986523642,2.2357243546428114,4.356254082779425,14.873747105414447,16.982272548728048,15.512682831563737,18.351776887303476,12.59620943622387,0.4913155375155194,-0.8200175885612718,0.5655277960666025,-5.996132202992724,-6.826978489582807,-1.171760644606825,-3.879083092046563,-6.937334668796786,-1.331972540462767,-1.7370571646053405,-8.371328106613243,-5.837176140148568,-2.6031246633060805,-8.056691543207949,-7.719830698383236,-0.8327840291269473,-1.1000635317907783,-0.3426899911523784,8.650834447172622,10.557813963691881,4.2474182328724535,3.3434736168467265,1.4037597813395846,-6.923556961329297,-6.305343881025722,2.2368468880537744,2.01086072301184,-1.0341009489734727,1.4338673020990995,-2.4002926920284304,-9.266671135421136,-3.3385834260073457,4.545640765046879,2.179013282700201,3.0214135071818093,8.339969816017733,5.1816766789475786,3.494484449590293,11.767026227565868,13.247122816463179,6.064874812482495,5.523482939930332,4.85169379706486,-4.000786585161839,-5.986667903658676,0.4345019913115662,0.939676654614717,2.000667216221312,9.729173232273062,8.435205519743722,-0.7559783328943932,-0.43688596446141403,2.5414257225666885,-1.4834675730913087,-0.058900790489337274,6.669331021859439,6.032166729405331,7.100869124667111,16.13858660184939,15.991587251306685,6.782775423434118,5.9168648406038535,6.1940182775114145,-2.638270558269958,-6.821450503254324,-4.626962989141193,-8.064729131761638,-7.083814782140385,4.576171341786763,7.159474263999425,-1.3404986385605175,-3.3735404396100233,-3.8770070991385195,-9.962736367176307,-7.895565315672537,0.4906793988437448,-0.07827698419658158,-0.8949912028422807,6.188204552589253,6.32255530820826,-0.15253590188581478,1.6043098234883373,3.280162531652062,-3.455931418824287,-4.123120582357454,1.1239281268281531,-1.7073755188179296,-3.3524843857447015,3.1745992944953154,1.3410090622457957,-7.462324707499352,-6.551989699185282,-4.07841329488675,-7.699439312022578,-2.008051799118454,11.271512664371766,14.770903724784894,15.289143833959965,19.688048172560165,12.996857721105059,-0.3186048125571066,0.27981671579274003,6.600176394648212,6.497486476645803,11.964585206713139,20.95521075842899,18.098499558284033,13.340486619430916,15.704614066038138,10.947151387304496,2.1728116762543506,6.4150064021786175,13.720122772767924,12.491664489554182,14.505984933287085,18.375525204549884,11.234087392073475,4.55118796454881,7.8135520434416925,5.924081207301777,-1.4582522781564857,0.010210166222520689,1.5470969975999942,-4.6551438393580025,-3.321143817151718,4.386938486364691,2.824748102371581,-0.09803029775588878,2.4058378929110553,-4.090582908479259,-16.80116133990448,-18.901124912266358,-16.800777194750736,-18.16919247102102,-12.157536621673495,-3.8770326182762185,-9.32949750422492,-17.713772544334013,-16.23204743759544,-15.933692702873952,-17.585415096417375,-10.695621952334912,-6.75150665959033,-13.612027683046211,-13.7323570743088,-5.975641940305893,-6.916796391896981,-10.475597214275515,-7.7733917639536045,-8.853713137363975,-10.081187601448887,0.513884276223683,8.950661248689547,3.541802309908708,-0.3774794003072147,1.4698211309334734,-1.7996823359970187,-2.55239502506181,4.761096852725581,6.1527106125580655,5.207086296467002,16.14980234148952,25.45757393404446,21.42824248953856,17.82864285056595,13.88175651698321,-3.170673632608284,-21.507753467632647,-32.42902730326036,-48.65797869727985,-60.766743534114624,-46.98952055250247,-20.007996318214843,2.948779684806525,26.974691319723803,42.53509706467544,35.57405292189537,24.26019644463581,22.04793857008577,14.9059842413076,5.225611440492186,7.498691673431251,10.394252931845948,5.148624257886675,5.858031284778971,10.262723320934091,5.675479695901197,3.872678257106375,10.482581165227606,7.685120079150822,-2.041993914307738,-1.8367064190796714,0.23400247367602128,-3.0994734488798885,0.08353890982521639,4.3680611949306485,-3.5996192504422693,-9.96426874762015,-5.275478845231339,-4.973846101538487,-8.768170758907493,-4.302954532138547,-2.207441229445738,-8.229292531849822,-5.735027971791437,2.682321873187388,0.8341634793325046,-2.5669522206324977,-0.07646777538790883,-4.9501056209773,-13.045372719077545,-9.757216392653683,-6.389105815205828,-10.115840759805192,-4.942348786371111,6.121117352152229,6.94427529027938,5.871701276653235,9.091390493803104,4.3925142595656705,-1.3184462761732234,6.215633256209264,12.522644185376548,7.440057372935761,6.377567262995186,9.647523829385657,4.630470438606547,0.5657739596455424,3.709780244194657,-0.41356709930656654,-8.17834030950117,-4.247338633026913,-1.2168681096431309,-10.76047207988528,-17.427918486681147,-17.395927529148793,-20.091138167375423,-16.064198014660203,-3.6844085036620147,-4.718271622605896,-18.948379528075307,-26.128700414070206,-26.107409060780927,-20.46666059260346,0.18827381212072059,21.82906232616293,21.807410527242027,9.586548695861875,0.27304082927055484,-10.083464903868576,-15.53832175622994,-6.809729149509683,0.8141454024325352,-0.3242725551276946,6.273403871467924,20.71349327866437,31.543516014933672,46.27639447539312,63.818597964584725,63.991231722539176,48.94267741017767,35.09257700967192,18.57998311039801,0.12698862401253042,-5.303818341441554,-7.23166057377771,-22.502383303506928,-36.22285495937495,-35.881179663358594,-32.18821516214464,-22.883337843341536,-3.623216940507427,4.385809354457316,-6.123858572811075,-13.90659951915619,-15.97518708946443,-22.08094250085652,-21.112162854333217,-9.66964392777593,-4.30454340601902,-2.123922393890997,7.3447638431065645,9.95516556767962,1.2836989249460125,0.9727032408334166,8.614000355723709,10.351939716010595,13.150108564307944,18.539562368559633,11.678622016795924,0.09328305640909873,-0.3943105715463917,-2.018393331704793,-11.337082181268642,-10.379520524919606,-0.31055607845481603,2.919768491090461,6.132338990385271,12.950570123611216,7.883432213256535,-2.8493164907767037,-1.549138179944312,0.4636296247440221,-6.739753974389441,-8.801848354997597,-6.079814022962634,-10.285801069074019,-10.757572207042795,-1.2873861866141016,2.639337641794829,1.855901235764078,7.486817031526913,7.322104822505008,-4.53266658349057,-9.753798243815094,-7.17603470528022,-9.251325813641277,-8.643739923284063,-3.1250804440883044,-7.665838508189791,-16.025093611627902,-11.924661185808281,-6.644914630288142,-9.406435379409848,-6.263816300109031,0.9224777208820907,-1.1469449812935888,-2.4025518062704148,3.392511538744503,2.0186041037853024,-2.13760348591602,5.050100471107045,9.995872600312177,2.268861153819121,-2.4240356239702927,-2.260009926690838,-8.218426414928159,-10.340158895873214,-3.3083495791490645,-1.7358657820746874,-1.0015486712001462,12.731549572689774,24.294610423708228,20.652439841392976,14.693178321638456,8.841449205327768,-1.9409039587945673,-3.0112881947812586,7.96997064081657,9.05750904123386,0.12746388412486986,-3.086748523207197,-6.309830911463391,-11.78944518166066,-5.039075521551652,7.6961836569121935,10.73560510861303,13.315134963692724,20.36427299981515,16.79137378773449,6.6617039650885985,5.315133936476199,4.703061067852377,0.025073228053052787,2.9505430139783138,6.082197208310328,-2.4903405826180687,-6.695099068008618,3.146408683351484,12.756025888760663,21.584331041206042,34.93608703049617,36.974465679357685,24.62498013829034,17.929690567085572,16.304564812456782,8.612490440847465,6.188908852877336,12.107146585580654,10.014011795323132,4.546549615583094,7.893194911901346,7.074212425017743,-1.9696988184701487,-2.547087645848433,0.93689272253378,-2.7780820984927255,0.6319542998648882,14.520333080538347,19.504313674798972,17.60014982445566,19.6414128364757,13.238993185476218,-2.241817729989841,-6.989565283864263,-5.843970815305214,-13.099988666602352,-16.004873393660315,-8.199687007127668,-4.9422361727154644,-4.359062402424501,1.5223132094254996,-1.5098777380930215,-14.390065952787747,-15.813510051800126,-9.13817617908669,-11.386544874967662,-14.710325516901731,-13.389881298604532,-18.46583813686709,-22.262449028319026,-13.141560261830064,-8.195750844120841,-15.507586239632497,-16.81546477290484,-12.204204162199364,-14.026041829900803,-12.459029600955999,-4.045806502311798,-5.277695267527762,-12.788016085793585,-14.521343288815407,-23.611629852424045,-43.40351724658606,-51.146856065296895,-44.50696892401779,-36.49021252108274,-20.15920658729631,2.732261661027282,11.247941892131589,9.329849283706638,12.641085229140083,10.375620272857486,-2.2575309767565814,-6.765001523917174,-3.660538828405926,-6.730146954171668,-8.033197918274245,-4.090752212128065,-9.177060647208096,-16.12814503201212,-8.957414863379356,-0.9867509870441795,-3.106419101629009,-2.3238080897017435,0.6557308048865302,-3.9743255530909414,-5.254839314967772,-0.5278125737338066,-7.382543614873109,-20.97001872193074,-23.04544188327256,-20.632859055057963,-20.0814532437508,-10.506057444096669,0.5487165450687663,-1.3401521752759655,-3.7757284354924643,0.828705597924368,-0.9550088838936996,-4.92808719231784,0.9613642325833376,4.907207348124116,2.611855925446113,10.468950267035652,25.184726856442236,32.946808121548855,41.60088811668254,51.963513021335416,48.65639401247403,39.86440472401942,41.50669619402049,42.50486679464368,36.45741854003194,34.27903007518728,28.98395726479596,12.112885231965452,0.4089793190271629,-2.046182158686804,-10.765588884897195,-18.124062678110516,-12.137079080612498,-7.775093158909498,-9.320435674002098,-3.3294206855249904,1.2864329753455972,-4.56716924551813,-3.567370883443731,5.91103552115589,7.673422804249467,10.936342435901947,25.451648351976342,32.81581517129167,28.069045659819498,25.74078506982936,21.08534506881355,11.132942131782174,14.607362894624638,27.35271016097887,25.211319000454917,13.521646056067201,4.537310145603323,-12.24936464827834,-31.05184785481027,-30.45401313238363,-18.01835004407303,-7.4227670711065175,8.02731172345634,19.40822763800329,8.89638602943911,-7.37219389437346,-10.38389663769781,-12.003785473440907,-16.41527645747402,-13.8955385083529,-15.559830316448785,-28.615104852536092,-34.43743050446486,-30.87373695201365,-32.10551469991628,-28.559777690171096,-13.215013739977756,-6.433178995322676,-12.463630083185711,-14.304120852804882,-14.829322645361902,-18.902110636666706,-10.924086380675963,5.913504673504217,10.320536017763729,7.707915067050028,9.12290384467051,2.1267995522982366,-12.04040501526877,-14.596891339556064,-11.614628043359895,-14.345098646595108,-8.831868082711786,6.254795755909159,11.307358937796964,8.341721125921712,6.995648015786907,-3.42084714043875,-20.268184947891097,-23.125181679513283,-17.67316820863895,-20.302193778202234,-21.90216157987827,-17.695233318527485,-20.92814930867716,-27.06079469840801,-27.158215093416725,-35.58136335727484,-54.40693306798971,-63.71220705825354,-64.16611138447963,-66.73964991841143,-62.5329633159674,-51.903211892632356,-52.03233824961836,-57.38204816614414,-53.355388664159406,-48.80594734395779,-46.48809638736005,-32.854521154075194,-15.615876665440762,-8.434690624583386,1.2474286690671184,18.789625228387727,29.763997721663237,39.47169137699901,60.364710765059165,79.89384855217472,91.06660438429684,102.84971064790263,104.65969219263675,85.89617542162797,66.14450702125322,55.310725826027294,40.1444571254418,25.411209710214422,23.01268741635272,25.65400279357968,35.992654132616444,64.20470076906689,89.32394457976315,89.19788765376956,77.54301362653491,66.0970334436295,50.99086757806329,43.75487809702643,49.51752210661278,48.59606388342632,40.864937221568674,43.72752751625745,46.572275514118445,36.52339395691562,28.37620447898532,25.29645891075461,17.0263368255587,15.474761424943999,24.077935917629084,18.84172885531512,0.7843883895512906,-5.440725497305254,-1.786808035777732,2.924271351123258,16.090406089696586,26.109969527438405,15.144328147423915,1.643950731044992,2.956580926132294,3.4473706910874924,-1.3950336563579593,-0.7190843817230819,-4.453268892048567,-17.390127210840138,-21.552781834814645,-20.10566214491566,-30.228195398385843,-38.88651543919353,-32.516449777682425,-25.9635389700039,-23.257625182920812,-16.323491527222508,-19.103812721938993,-37.26143291087972,-47.26436436956247,-44.885456776402506,-46.954003981857966,-48.140110359641,-42.96075724177359,-47.48715104433118,-58.48702817261327,-56.640031888921825,-49.849767255016694,-48.76192490898844,-39.93447139007402,-24.643728425432787,-19.576973394847094,-16.782643319993305,-7.332297482519117,-6.557682085395437,-14.303161487262798,-12.91783275051831,-8.787299994599554,-12.343726640904034,-11.512847097125402,-6.916869321906878,-13.54643962769915,-21.08955813988979,-16.018397430775156,-12.665577442888779,-17.651766240990316,-19.852485019741025,-25.835753480940195,-42.38269101902076,-51.002168870709134,-46.17469068514186,-44.360698212999985,-42.784924725843894,-33.03667832071169,-29.02311254016695,-32.46263915135325,-26.54056307772079,-16.097901318141115,-11.019086703340456,-0.5845952365202125,11.542607175455066,7.558014725793156,-0.7358604866075051,5.988970164504323,18.399156821350658,29.94475900061161,46.05078312763199,52.404821397558045,39.74842725701174,29.954827763454595,31.008967129915142,27.270929280457068,23.83504299941831,31.115860609423162,36.03956587849847,36.53880297243803,44.700170601701224,49.159225186311815,40.033691105352595,34.95258175506995,37.59200319789797,34.2881029325137,33.567472630689636,43.350918261772826,47.766356376339346,45.935138037620604,50.26059923607348,49.67978804585289,37.63903109100099,33.01373231315952,36.42633655885113,32.10959039300922,27.751078222927873,29.028522059796664,20.418847794024884,5.705793988855719,0.972387051444931,-3.222327769503085,-13.157768033104151,-13.799360698611308,-8.103887259971813,-9.4146309792175,-6.426554519470287,7.3111012361637915,13.949754565932484,11.133947735580286,10.453458086112136,4.217099594666172,-9.535006168178699,-12.215449723289568,-7.067573349253956,-12.656221929050936,-20.27340002947736,-19.97989982476175,-25.654935096493926,-36.098036387242495,-36.13285543886665,-35.20864023893908,-41.57946585274212,-39.50495216776302,-31.135014993240183,-34.30324009056121,-39.17033825607542,-34.001281099366516,-33.00707364255513,-35.91639658811497,-27.12530303664445,-17.474069769645137,-19.45015147759488,-20.415172099321886,-20.015748338945315,-28.590751381372947,-30.877458729497683,-16.16767764341705,-5.260932593060835,-7.04213670645488,-8.586313573221897,-12.611700017657085,-22.62306288051231,-22.144710111310186,-12.12167618638508,-12.45876057622564,-17.841951172836893,-15.724682598466114,-17.89380143566503,-26.067614182647187,-24.503874794140195,-19.64851039607123,-22.54706165252156,-19.725242597463094,-8.535865484405992,-5.266645287314456,-5.958025330834504,-1.6361105844738097,-4.563146624982181,-13.419897884976958,-10.33328322203668,-3.1857025049026966,-5.894621022950067,-6.69014430678534,-1.9239939276778373,-3.5558153850648075,-3.703093057066713,6.012493465951929,9.519452174370983,4.331707326383407,6.483019853229939,8.930562646130747,0.8792666586709967,-3.2972541421164645,-1.150577717425515,-6.354321112866733,-8.362734102678292,5.411228564860212,20.95481384754269,33.45458618225885,49.13290028799204,51.83136193747101,34.19919316318523,21.258520758538246,22.552501875904646,25.56996027015601,34.30440519571668,49.6293919181663,53.23560619959872,48.48970450337643,52.46605345477543,55.327663077273314,49.83249095974215,51.75338946758,59.07321706805577,58.098593403086014,57.43893705341175,59.80840421609096,50.380232584659964,37.55724392892859,38.943228880973464,43.02492493255663,41.06092644995588,44.589447346955744,46.41150789257353,33.342598764543126,21.1653020332603,18.234307296851604,8.70039130015166,-2.5780744237320774,-1.8859471921485655,-5.392576405720334,-22.95766998557902,-37.92770191043881,-50.39780802187339,-68.97097696604266,-76.68669017520725,-67.58135004368945,-62.64397386945668,-61.949493497759285,-53.67639840316317,-51.4766715678945,-60.05804227548476,-60.64117744545834,-56.634127170888334,-61.642208243272194,-62.4315193111587,-53.86631929636367,-53.959167501962796,-58.844891433425104,-54.23792924701503,-52.221000545889304,-57.15531320699398,-50.69761944314408,-36.239032545260756,-29.474171098447275,-21.148088581244334,-7.510241901102632,-6.681346317070816,-14.423169076391522,-11.718059739318786,-6.6997928492010725,-7.366007401812035,-1.5712024434951095,3.621125886598766,-7.214318127339749,-17.758668777923795,-13.519469761864405,-7.566523699645588,-0.9038662338028713,14.990576385364935,24.466539999711312,18.34008342464395,14.352758267851854,15.117984254353985,9.23257523860751,6.763536579776641,13.189038512899092,10.110633718944431,-3.1126684809819425,-10.22173366950066,-16.63823046081386,-26.915025307611472,-24.689919964503282,-12.868880628594399,-11.768712790624047,-16.75450270788019,-18.408750149657948,-26.614449446471017,-35.95464849059156,-29.499877526215258,-18.430358908622733,-15.872092163607432,-10.112251356730791,-2.1713325664732555,-5.799899719241984,-9.423931868194494,-0.6883091987433465,8.477117181483319,17.033450657790734,33.32124440484918,42.658105628859836,38.03912536449896,40.27679912529214,52.11476305474681,57.61903168850513,61.514380608514905,68.63643824724505,67.5883033657775,65.02069371386762,73.76809526321946,78.48030945684617,70.19987322555299,66.90059079355953,70.37590613524931,68.51342701665166,68.45381362976686,70.45119456882415,58.891015410341694,44.16320807969904,44.852838818778324,47.45247487936847,42.62325217434199,43.900197066957105,46.59522685536181,40.6916992512476,41.09008104525915,47.90048027784224,39.206023025348685,21.995670328380044,14.514719034773096,5.82995394005542,-6.875204100088047,-5.8835260183651,1.0578216435974865,-0.32909073929905475,4.64809477891257,17.739287229542136,18.065473204883425,11.240934304617564,11.489216270290537,4.698570251818127,-11.712674523899425,-16.035079744874725,-10.107188389494294,-6.923890035729444,2.0720567215203256,12.565187128347292,4.382194121709769,-11.655077924012716,-16.67963044737988,-21.987708172656077,-30.488053052746636,-26.3118769850737,-17.907919199951618,-18.6236615510037,-16.05053691367855,-11.471915516338093,-22.88591928850628,-38.07821609216213,-39.34323865635421,-41.42055161911248,-50.94799293275181,-53.21217106583405,-54.183463947180435,-63.221975632256864,-61.42443560596882,-43.20522620241181,-29.980625344624713,-22.39401304125624,-10.993510521554587,-10.120295597439874,-21.766591422653065,-24.01128136798933,-18.363660383794823,-18.993039924867457,-16.05963663476649,-7.230581687944538,-10.793552611217088,-20.817205038099736,-18.382258366280244,-12.849326574817477,-12.416733067850902,-6.381335201181234,-3.311600287825245,-16.848579465415344,-29.530160156037905,-29.121745560305886,-31.404907698896622,-38.77403811271084,-40.540001654546465,-45.295578126171705,-55.65463212402467,-54.672644373472835,-46.16840665516436,-45.84799050439827,-43.53944405314538,-31.579494365293343,-25.942027668620142,-28.79748057458067,-29.882179311677277,-36.468151130879114,-47.98624623700243,-45.219871623617216,-32.41855797988443,-27.917398270066116,-24.24295926032812,-14.055410421423694,-10.076245056860413,-9.13221060615074,1.8335932966159443,12.534913580727086,17.25457134890364,30.551706230727728,46.99869287784317,49.50488686968645,47.86114697223938,51.22705186884024,47.72979693512124,41.21336739998464,44.541771419457355,47.03392328741386,43.798336251689705,47.5610354138926,49.37823973270273,37.08138645136407,30.939398237979226,43.80153983267432,61.41724749440678,80.85415384108897,100.81374297053199,99.38030920463544,76.3626713438643,60.21035639647097,54.535471777377566,48.10860211859666,50.01092987573746,56.57143992725936,45.29544322946428,22.542100598999433,7.390953711281865,-3.9970303832314134,-8.444338586109964,5.527399061033319,19.26593301383287,13.848226497920678,4.338304249945747,-1.4763883692981448,-12.778541666967413,-18.68626295984795,-11.921385499465806,-12.355228081859051,-22.097738468124337,-23.299546174375983,-23.12470011749277,-30.03528470844639,-25.545047727703533,-9.698541685368221,-6.04336563675239,-11.621601916239067,-13.537077500383802,-20.265584080096154,-28.298947844627293,-21.606842398787848,-12.366205689640184,-15.606107128631754,-17.82332891723542,-15.694423377514376,-22.34994107304727,-27.78423327167474,-20.588395758033172,-16.18918913623896,-17.991084486690916,-11.864384513524548,-6.466607684283364,-11.666710830018705,-10.630274818223404,-1.42893570288805,-3.22794149304505,-9.567820282633695,-5.900417917883532,-4.405737829821684,-8.125940349623363,-1.1943528083693264,7.933853555604481,3.8847614650630113,-0.3996400401612725,0.6808202830010772,-7.333545424592641,-17.861957984984844,-17.51674083172646,-19.428438099664323,-29.172250740369755,-30.394415161130695,-26.065006583169257,-29.948101861664544,-33.411007202953755,-34.08036176070978,-48.850040591081324,-72.72726944584734,-87.49163759930327,-98.81632892701253,-109.86140966032261,-105.83104952978417,-92.1345114658821,-84.6534876049194,-74.62104151549535,-56.81421027639773,-45.70744803997088,-38.04226215824486,-20.759156474144486,-4.8999378338738815,1.8138618319086122,12.12099190611676,23.54220879130951,26.35543509497431,34.57111507129652,54.142044029199745,65.70956773343667,65.9633362409038,65.02925060763783,56.58891283434406,45.09495711679718,52.37536555919678,71.73220701204997,81.05083146955033,84.84871270987912,88.45606936289695,82.36088473237274,75.43307028487642,78.70739875495828,75.59338150648709,61.21962813977946,55.32728003091049,56.613190010517236,53.41271444870658,55.89800514365086,64.06316099414988,61.26828511915606,54.95510775009523,55.98250442650918,48.2923418310385,30.109259323728956,21.496603265762268,19.378480416205097,15.31570545398601,23.170155729169192,39.029692416248984,39.79323222601764,31.276870366314004,27.849269170063046,20.332409327702425,11.319152233151122,16.124371166834585,21.216418626190162,11.275416778892694,1.8548150404827606,-2.300520871509478,-14.307473927294147,-23.752522366496635,-20.32160525302457,-21.349083571227787,-29.426419764165054,-29.189300150713628,-29.478068060839313,-39.18904551845678,-40.52937685098306,-31.976677296681892,-31.486013110647345,-32.95601226314492,-28.035260955036968,-32.351819641479004,-44.91809957214494,-46.153771592646265,-40.99057906851217,-39.70507848304232,-33.038178583490854,-27.12631298465154,-39.15012008440434,-54.292939705805345,-53.202258772884335,-48.17202094858578,-47.58441185212806,-44.71832215706429,-49.26747611226236,-64.46675895082022,-65.63056328023728,-47.94624647934522,-34.126158475760164,-25.521471916661554,-14.373265925391628,-13.033959081322847,-19.40772859367553,-13.704001004165427,-3.4574751454717356,-3.961990140943323,-3.872799959697201,-0.10033996804757317,-6.025076746209016,-12.057553617897701,-5.680343932568027,-3.033832505515271,-10.30187574418148,-11.560935724174806,-11.12482857699699,-20.227670127133578,-25.417040548820367,-22.691046716642255,-27.671709001616886,-34.3930976833115,-29.79000653012059,-26.713664563972905,-30.88766025897951,-27.563285696489526,-21.640442032155782,-27.798790820986795,-36.775987495956024,-42.72953575841492,-56.4318148039573,-68.85434582594027,-63.84289002678018,-53.58385268538366,-48.86683147145449,-40.60051840114279,-34.020351777576366,-37.535244076557866,-33.967116956729704,-16.915002793520486,-4.311794235593778,3.7374075602399692,15.294867733212941,18.365522194742965,13.135846122508859,17.491099083411648,26.173088239419883,28.14141413438564,36.01926461803642,50.61910756146819,54.92011618661657,54.34487008088196,59.20424308330699,57.715315988824315,51.158442489760276,57.26702934339426,68.62298380455698,71.26562508625294,74.74880597271773,78.65673255469525,69.80829304616874,61.106295372935094,65.91580859692317,68.26308255613593,64.30072377257882,67.69547520128653,69.64930625339503,62.42929959780321,62.340187846521296,68.29744288254604,64.49716691766943,61.9716852768548,72.0997624614948,79.55488266756356,81.25650176946382,88.585708502862,90.50887692555843,79.43989882658211,74.43915213455854,78.32485845141262,76.21663032388443,75.31519647682327,81.38861326729673,76.91063439958171,62.200354103457755,53.631836683446025,42.731538935244835,21.593013846102835,6.244665528048428,-3.8564380750841547,-22.337644987087053,-36.510325589372364,-38.248843432437155,-46.83598168384893,-61.20301231498471,-61.9754489772552,-56.27818685552919,-52.68187613927715,-39.96388148792016,-26.94242294974731,-32.282473555831906,-41.66234661158434,-40.64261310476123,-43.85322036548459,-53.2067414304755,-54.785509453809944,-57.26414889214089,-69.64137723660423,-77.71087965412272,-81.06826536857386,-92.69934092612345,-100.4741713244821,-92.2343878349309,-83.05038335703235,-75.96376187761585,-57.64698004135756,-37.8820918143896,-28.893734913052235,-19.220960826029973,-9.384428909539846,-12.645762441335139,-16.85310840889943,-10.218280513629043,-9.12949885576199,-16.48464613775307,-15.528922105291612,-12.232443067600865,-16.94304415867745,-16.219165564303886,-8.352399282309879,-7.586402448699065,-5.708403554413799,6.5001432380928374,11.10211025292583,1.8156658648200064,-5.868193044498639,-13.698057444166786,-27.082000161367397,-30.237753406438134,-21.619289559907337,-19.81880554865559,-21.871034961298168,-17.484087695748634,-17.917700817813195,-23.49750196722388,-18.326909298811216,-10.99325165027667,-15.852069113275718,-20.331082946906225,-18.47913124723552,-20.75599046977578,-20.0707341699503,-9.629574051668573,-4.543714217688207,-4.996412264212811,6.097062498810065,23.06575371220912,33.597271942667994,45.02859411923049,55.14412471672563,51.34981219569244,44.64160994794892,45.297277364854864,38.35189588595817,23.47590257063517,18.27927491945524,18.01135373372251,14.901810572001274,21.487672549093944,33.09063516202241,29.662695194160975,19.374987512057988,16.707455085972992,13.584382415975268,12.163933978443284,24.28018378368485,35.7806443194542,33.478389171926906,32.21289634654981,36.259326873510965,35.33285834770623,39.62450084894274,55.86801822246606,66.71619056378252,69.79450461648726,75.07517190457041,68.77524227752195,43.09340304594929,19.847334920039,6.370438414329242,-7.496881751845995,-13.675159755501694,-10.936988634341429,-18.958574407355,-32.613653993547466,-33.12858651578482,-35.11054132774518,-51.40516226269078,-61.07499166092408,-55.022360388612015,-42.54293266439208,-19.504863235922546,3.949680473099961,-2.469243114826499,-30.46117955256683,-44.541983790683865,-44.00218762378503,-42.95331887141595,-38.1166869988904,-37.02729641555777,-49.56279262345773,-56.959098380484775,-50.596124382565876,-50.93935806597865,-56.547802895672945,-48.58121253206161,-35.831746173247424,-29.339784786674947,-19.461845800470883,-11.49453982059578,-18.008025840968447,-23.53434345603075,-17.93152350333287,-19.125588450337844,-27.32458882756019,-25.801652520700706,-23.265274876046565,-29.072873406454512,-29.70743288328066,-26.674799678463174,-32.76478439596724,-35.42832697548623,-24.14666422346,-13.63483103650917,-6.080451543218381,9.435434375078454,21.751536733549443,21.092147462343256,22.27519822010726,26.609929127573757,19.779365269783863,10.39904538425974,8.59649687763493,0.923752476566829,-12.60605681940741,-16.049619101219303,-17.407188535884003,-28.788546024484464,-38.06137315059234,-42.62409604185237,-54.2705597917746,-62.38924845630579,-54.13307959535423,-42.92985171908826,-34.760681521614174,-20.773204771390013,-11.03923019580661,-14.966435418222447,-15.74195473726973,-7.513068093249432,-4.673175427563597,-4.451933098870903,-0.4075339840717971,-4.295998067416706,-11.547318463495744,-2.9069440615198783,11.698346570382041,15.850825130638967,21.378417859889723,33.86458919221968,42.912065623224066,55.004374399083574,72.52958114504581,74.4705216034482,60.02664539679142,50.272062888226706,44.781354290272795,39.96344194798372,51.29615113020672,75.30913027183277,89.79665776440568,94.17289368678318,92.25840136330402,74.95563641542597,54.23207815541138,51.037285413656235,53.93394215045527,49.560929203845255,50.9892635162642,59.34393805412125,60.97067910795576,62.173231376822656,66.24756089993969,56.92345246294609,39.487695429552744,32.581457059149066,26.935797160063615,14.567699821541089,9.79238683839279,9.186469741103744,-0.7360984762119873,-7.363179755288434,-2.909982578258713,-2.4182958993923647,-3.757900483938567,3.3158271774518875,4.063049498581941,-6.353625812042891,-8.077949999687,-3.3948581624649203,-8.60143085782234,-14.520794406545303,-14.113515656960978,-19.59637228242565,-24.532478800820265,-14.047470280686198,-2.0715759800928866,-1.5316009727674431,-2.168098523786633,-5.588290715353741,-18.275253997911786,-21.970142301805147,-9.362917377206724,-3.031696268448994,-9.959331503697348,-18.1609699844643,-29.285609811577054,-40.61401937155122,-35.05971046623108,-18.10594782650371,-8.941418702497998,-0.6986935278500535,14.603294728118751,20.03989526425233,12.37586309145198,7.482521225069006,3.3097881340170674,-2.568002818050182,4.190901271537367,16.591166255211355,12.574391766435172,-0.561914896281857,-8.992998573817339,-21.415555920147973,-35.59248241846596,-37.68313146405149,-38.29576492649804,-47.14603365331077,-47.94698696390426,-39.29012537832897,-38.58370563625965,-40.24464906995838,-34.49306966945007,-34.195314355026454,-38.73013968095116,-31.173130826840477,-19.67183891544633,-17.23149730152715,-11.470630753282972,-0.7058855033655491,-0.4840002706318034,-3.0241235136600166,4.058168708187035,7.9980342977085765,5.25411874086244,7.872959110331139,8.568945464229769,0.6308522539937487,0.9910878932281961,11.460173120942345,13.481936204810182,9.984664055463526,11.296456686203294,9.231121349661784,6.72440497682962,15.803641589129683,23.62774839406736,20.753804449942017,24.31349855759516,35.38475815826766,36.25550129885702,29.612548215969394,21.046066388842952,2.7464383568599526,-11.905150203057486,-0.01870081949895752,27.225063091252412,50.402270469560165,71.18919031921244,81.84539805362037,69.83284018655765,52.98168828523009,48.71321004634092,45.259257928684974,37.64935449554134,31.817293307501288,17.845251871073195,-3.5090809943548837,-10.29732284551785,-4.753468429858932,-7.013623287157042,-14.247903071068997,-20.923393782712434,-35.08763297669529,-48.72554092553966,-51.13469857838621,-56.645375225680176,-66.84209320021547,-57.43328572224919,-29.964718081684133,-9.259443010541343,0.11939774802979342,-1.4357743683659836,-19.86948344704343,-36.87876476021095,-32.190199849610295,-22.301081206705415,-21.813835906400318,-15.814464624921403,-0.6007739247876964,11.975550723908702,25.73018047841231,38.59172866261434,31.462599648983584,11.429224627850303,2.5447392919128404,-0.3259368918088684,-6.715092741396764,-4.446323883106656,3.706470180716245,2.7417223706077203,3.0299610973553164,12.135992759732293,10.948972594741953,-2.995219040411854,-11.924294135431916,-16.364533771380604,-17.15211857235612,-0.6873065093705542,21.622395817267613,22.328686262870505,6.561263118235245,-8.263470480355792,-24.832495825034883,-38.948956579492794,-39.42738736032234,-40.525418259724155,-54.55790315250253,-64.33495292124684,-63.71040676111428,-66.81037521233458,-68.74270194969132,-61.29962274100992,-59.06520680788352,-63.647086747121875,-58.85605519859722,-50.90999037807557,-49.65531885215754,-42.519384025269915,-31.150230011985105,-31.96808288971776,-34.66987071639075,-25.45882753386749,-16.72571863127459,-11.519618856850386,0.1657327920580487,6.624566046880032,-0.4060735527106507,-2.864630139460196,1.723674071674972,-1.2856318444721098,-2.9236456296892253,7.360992978255796,15.797057477525685,19.26008493764023,26.973992477762184,28.953817758228578,21.966914618441145,26.774395281962743,43.83224857371295,53.92292022840944,59.07351549117121,63.16102088864831,54.47417266712869,40.20362227724672,35.24844949858085,26.75201900942467,7.7413269419663155,-1.471917826173527,5.204295093597019,19.462388938221764,46.03521949748795,76.05769833419798,83.77989866868084,75.61587147876517,76.91772098552572,84.69751212558799,89.98016095324742,97.26811612826263,95.77741005310229,76.09631869579871,58.97646880487976,52.908195014370605,37.43095417490876,13.191453698179481,-2.8213624709275456,-16.18255737494232,-28.301322234299604,-23.800583618329455,-13.07948675116192,-16.793399330587327,-23.663543728816663,-25.082304375997833,-35.11574705682136,-47.139173718156485,-45.61107311084006,-44.77675600861052,-52.394827158732426,-51.265030916180066,-44.11028429210238,-43.4636062585868,-35.93996573537709,-17.897993704444595,-9.268420655583357,-6.80991989979343,3.693378795895892,9.775309436482225,6.248757223429639,9.584195263832546,14.531126240641521,6.762811210287252,0.0984063405071518,2.96028093881253,-0.011904024200048768,-7.517699952083454,-8.684575611427732,-15.628209311191624,-31.88155354512637,-36.18230227512851,-27.00457700606021,-19.832256811993705,-9.992876889322092,3.834472075574511,4.063558612227936,-5.837174865851521,-8.583045683121817,-12.22799493127852,-23.080717177168665,-25.178605297735533,-20.21318828848299,-23.741935588912444,-27.790070780272707,-25.762434426635327,-31.88939156593497,-43.349378762955155,-44.870597728452466,-45.64812236223749,-53.303841658949274,-53.02769206871451,-46.108394459658,-46.82378165402389,-46.29268661844735,-38.17961398364221,-37.582403650112916,-42.013947103048416,-36.70742929897192,-30.87058104087253,-30.450311108438672,-20.30930581846193,-4.133891770960295,2.156280729387211,7.839114622286274,19.525136597156937,21.572370417051708,16.20786334817158,17.941956959941656,17.212023960628144,8.88034640784848,8.396179869771746,11.693165019854904,5.888259276588766,4.285798835137855,14.321396431044253,21.8364727313594,30.01853129305002,47.796538230372356,59.034092550247415,57.82558845207148,59.92218587715138,60.59092642788338,50.385873733449586,46.494821910856814,53.743202377370004,55.521733416793225,57.82120802448554,69.85844360477807,73.53893917743275,66.76845930243358,70.63935516978167,79.71452353340844,79.69766510245975,80.86442798306928,80.647154120242,62.3038578590876,42.55004389684551,41.95312407643945,42.78568670443137,33.0860172291177,23.587334806468846,7.868818499230766,-17.649934833865103,-28.114237822507395,-19.773609006235567,-18.337470738648115,-25.49699912764908,-31.797117006169746,-47.05289799734068,-63.26304050793385,-56.63938906498626,-38.79434240412954,-31.723180972010017,-27.77646074039184,-24.64521927299624,-32.264055320034046,-35.71819937934356,-23.552626123646533,-19.14206015714323,-31.05739655417278,-37.03960079491693,-34.086917583575364,-31.152440589246503,-19.812803936209598,-8.014195408850899,-19.22888920238343,-40.29400097614424,-43.254295933907734,-32.81664731491821,-17.1449496806784,8.546346996155819,28.053560258576344,24.669508070423994,16.414073772120553,16.16925490776152,12.998687625337276,13.499026648512144,28.486591500773983,37.72272404295442,27.604056659434484,11.980266296986533,-7.626888435068482,-35.35161712671668,-52.405756858578066,-52.484692878677905,-56.30093467529352,-64.69361733845244,-63.02850585657299,-59.90723301230985,-62.223456443085766,-57.27746168483117,-49.638173282162406,-52.35061064589195,-52.118643595438,-40.8240452005529,-34.20549468344139,-30.89410153473359,-18.360914723314593,-8.106640985433774,-8.831407122913578,-9.37530859440967,-12.598415022239424,-25.298684268966255,-29.50128974242402,-17.05136765304471,-4.7997514326635144,6.746168117540899,26.279073782349897,40.571171634321374,43.364996177035195,47.165520985817025,47.3473693364135,37.25393893880263,36.775019885667575,52.45808037053287,64.53921522417026,72.76377208971621,86.16994936197668,92.26899269941129,89.45431113666487,92.44839970614862,94.04489449146743,87.02318406457371,89.67225744440613,102.01777269457105,99.96565530300461,82.7500202463606,60.24085695744766,27.320774784601298,-5.2134007226539065,-17.87174504402308,-23.806184475683388,-36.92463296660249,-40.94010690096445,-34.163548236686026,-33.949699927870014,-33.39300172871513,-25.3266415619049,-28.19089119222101,-41.59310566963551,-44.72206180343305,-42.83816154227249,-44.50882164508612,-34.388626462545695,-17.402051775351843,-18.35929526603721,-29.799784107328403,-33.81094107562912,-38.687555324860085,-45.494907952814884,-43.88540235857969,-46.11552472259574,-58.104540765335834,-57.07880022971062,-41.305033330725024,-34.327064093720644,-36.344685297228764,-38.14902688163237,-46.458004966051114,-53.255431082102625,-41.40076533787589,-25.15732468871058,-21.520039386455057,-16.859957731146658,-7.614889280025047,-9.838736193460248,-16.610015909728258,-15.598778273031641,-19.375077732660756,-27.84555093037632,-22.382003715869335,-10.75441759974759,-8.882608454390805,-7.454503492616249,-5.841250427184538,-18.080330237631717,-32.08925275970199,-30.204904859544303,-23.96507098425402,-19.323265306554607,-4.45404742959362,11.14595972944021,11.985081599479178,8.331687307474013,3.5231827297488594,-13.706143779854733,-29.51964944997415,-25.78494106111542,-17.23333183848633,-15.413008879477887,-9.30172171740427,-2.354939938478071,-3.367128332777803,1.784429978942913,15.717510599223885,19.38130143843827,17.573135030288107,26.45370535788676,34.91332306938767,34.79843980488194,37.87642047331598,40.157198481240016,33.957906348130365,34.84456764857161,43.92724420109091,40.38199358701057,30.362771463251203,33.658648516258886,44.48956619146105,57.24681873901521,75.14897650237162,80.42105945728194,62.9946554265686,48.51029240363107,48.6651112206393,46.688396066070084,43.00193411684783,45.531653374663215,45.95544699081984,50.57924176029155,73.40104270500213,95.96067363820839,98.67756187037247,93.36735297881705,83.81916360609725,59.74517481577223,33.47562508098604,16.56899934673128,-2.7062931544145634,-18.9806815347678,-14.771951988091828,-4.209582073814456,-3.0123058065566024,0.6555162828413341,5.087465344219733,-3.823968733392918,-13.226011124238658,-13.13206378768747,-20.311501181970925,-33.42826418490589,-34.34652692979235,-31.558034892425148,-35.45468396424497,-33.85315617669926,-31.76579318307457,-45.81305048697389,-60.552079777107636,-60.55415993009201,-61.27378539834149,-63.76236928025778,-52.44211206490972,-39.04692530521419,-35.35080461417805,-27.122800669537547,-18.31657805682595,-26.56119485068602,-36.81460577289853,-33.366317700863235,-33.04859599789046,-40.5423010646387,-41.08551593762903,-41.076709806325994,-45.69008213027884,-36.13276678872475,-15.50206973742506,-9.013089880953391,-12.285737692739202,-10.471293397521126,-11.810056092891465,-13.742536730314932,-1.3244545009402495,12.70788405626976,13.224922152386167,13.351168633128983,16.560628003854173,9.196647245441861,-0.8150792073382283,-0.8259123823531733,-1.4675574872107946,-4.8654120205641505,0.63713873286749,5.410906913775065,-1.0953646380717794,-3.2603032438628095,3.486875784118088,3.079527174871684,-1.9843668334877285,-2.895512332438261,-10.118718895651167,-21.607552373471297,-19.544906922721292,-11.202115825547542,-11.115047327072498,-8.552321706728904,-0.3155892654811989,-0.7652628303509479,-3.3771738730636405,3.545457809512592,6.050837326114773,-0.49556749833036884,-0.9508170406284437,-0.06400276308866215,-6.002334511170378,-2.4759935501472334,12.382033578701805,18.71859804527791,19.0969684257541,23.79492363521726,22.271528814533866,16.907692927801346,24.28715777398679,34.351383813187894,34.88181847283986,39.76067809488692,48.90916323845478,45.315573567071134,35.41142065433997,30.135971765977104,22.570340599615186,20.05144358643505,37.21162256922452,57.47177267338963,62.791017530434374,64.26295196604954,65.60067648025469,58.950415029025,57.34514154749672,69.56092077664876,79.6201633324585,85.89811442066495,98.42075054432439,102.5271307595629,89.24628107084253,78.11794640267122,71.94167026383444,56.63914468674058,40.48501201393994,28.552047780970575,6.203436810679976,-19.064954490063194,-30.999896245773215,-45.32070722132478,-71.86365709457039,-90.20660037020953,-95.30559521692908,-96.81188987714091,-85.84012012188936,-65.29246883853016,-61.47673843388592,-72.86495143362438,-78.11062698408097,-82.67551706974749,-91.8279043123948,-87.98095384977628,-71.22702328151537,-56.85904238561175,-40.56325497246883,-24.07538997192878,-28.264938476190185,-46.17108267690011,-49.66867392741631,-41.70161104103278,-37.05061348799953,-31.255623959206204,-29.83684101870319,-42.22242088667328,-47.689869396541994,-33.5454659911255,-20.898960930799838,-12.43922578243566,9.447088847442677,32.96007519970755,40.78863451184515,42.31545527598105,38.1329565001752,20.81604871794805,10.465800889851586,20.25148869611726,26.130742042018152,16.673446415295935,8.890495175970791,3.606969031997246,-7.3579627036454625,-15.242489434936951,-22.644564083956713,-43.37377903389895,-62.85581925699911,-61.610770491555876,-52.66629849277556,-48.01802785375281,-40.451670408757124,-35.30738388608609,-38.745221578389156,-34.54346501564841,-20.44813338286206,-16.083485085173994,-18.945092712542472,-16.554091885755,-19.214528306522773,-29.23529799242677,-30.532519025999463,-27.19451188772323,-30.538954184099204,-29.427614241012837,-20.81238839951372,-17.501403026354403,-11.721056094291386,6.788109153610786,22.476011262903157,29.292996513805225,39.2498947964168,46.44536148791514,43.10842979949167,42.20540046348524,43.05744781559088,30.877230566532564,16.329442594323147,14.036553268580386,13.567213582135091,13.510702542539446,25.259714521536775,37.72484050272005,41.485989528851576,52.38641364407236,71.01471666423389,80.89173841969692,86.42718329462289,92.18761538218425,85.18211584604792,72.44985772643082,72.89794664742632,76.98388823302227,74.69515517050398,78.33167610230709,85.18462689317718,83.58312463317696,85.32247260717064,91.52662062132832,77.83962652772689,46.424090845168294,20.583421403165463,-0.3937082951405433,-17.13264040202941,-16.507790113132266,-13.059931748942715,-29.4497208804246,-50.84355889111769,-62.00022080154803,-73.08916646876094,-79.22746323964404,-69.06844949544215,-59.56780857664572,-58.63595941863477,-47.64850747367133,-31.028490554254127,-27.291703904725797,-26.45537678228862,-21.95641170465835,-27.542873325652774,-34.14794044255563,-25.566878740380382,-19.092041853895715,-26.864045370474592,-31.975210215989744,-33.17076607336759,-42.25623925635343,-49.11907711416893,-51.66003491806248,-72.0559225634201,-106.90109357938255,-127.38246742957168,-127.29504919270403,-108.10752772189582,-60.70018142314355,-2.987886243991264,32.97608604305084,52.09428282249046,70.22730612084766,79.83989277658296,81.70786250014777,86.62659390165373,83.05973862943588,64.54030942507121,52.06970121536986,49.3491188118902,37.352111128567685,17.879395415357145,-0.6597530890521477,-27.795155982295615,-56.959662848149264,-66.43459430449127,-64.60621608448477,-68.7656369059042,-68.88834463015718,-61.36257901127186,-58.76579090379024,-53.38789082052875,-37.37875642203161,-29.438652068511743,-33.83812047558808,-31.989583231739935,-26.47700534246207,-27.90991722323805,-25.123710471359747,-16.430159579410873,-16.16451344740621,-17.403802320577896,-9.055203091193839,-4.414197305460832,-6.910782971654799,-1.6988372034694366,5.056694546243229,2.4769220624646104,4.29922527141948,13.462779427276274,14.936072448021077,15.675582269000163,26.15105032545151,33.3901405166003,37.400218986629255,52.09043250167669,65.61787884380456,65.4101026932343,64.9515394360667,66.1233708848768,59.123723246659694,57.74022872626465,68.90119815983869,70.11689126205168,56.92593042717961,45.30341762316504,32.52767471366193,20.419414515878636,28.444145634738327,48.45723156708854,57.87818081267103,67.33505398234065,88.07447575635763,104.1573406393116,112.00682326674978,116.5833248121078,102.78300145353676,72.38529277639246,54.557076800815864,52.06396311420275,47.99666379076818,47.248837177017116,49.53934067844169,37.64950934750705,20.341448991168846,15.991946297816282,12.21740574613174,0.9499740670655639,-4.407562293821441,-11.63595002538209,-33.58550136056458,-50.192748532085595,-48.972311724687444,-45.17176310751712,-39.383083878777114,-27.21184031962661,-27.1267655207048,-40.717812082894575,-43.5590714760196,-36.41810695692095,-34.520354956029124,-30.14654270486266,-22.650683272710204,-27.343469200618763,-34.904355084093325,-31.41956567417067,-33.26895769469334,-47.78160521323038,-58.97743472611192,-71.01807690637942,-95.08374443485546,-114.63380798376299,-118.45194680924295,-114.94696398450272,-95.21766821273765,-50.31319156943211,-5.414048828044715,19.601586606914115,34.70987008463585,41.75941808364308,36.655206628943056,35.89780161220136,44.1894164262427,40.69177889807063,25.108778185659794,15.117428750201423,6.191360724423079,-8.041850711670666,-16.251300112085868,-23.836918763176545,-44.61827529229534,-61.34275273818528,-56.84508624865789,-45.7339199599111,-37.65614983658529,-30.1942453508711,-37.46399120280612,-63.22424101696171,-81.09234259546042,-81.2514838961282,-78.74295577115853,-72.99511055464026,-61.49525442250661,-59.977605725256396,-65.95374501441876,-59.58125080042458,-46.409833781497305,-38.16616630129328,-24.887397144520754,-8.168082196681727,-2.6068893452731996,1.5639211804575854,14.739493290720684,21.463512351684255,19.774763006373615,25.538462240134752,33.58668320558165,37.89039796862005,52.121965872386056,70.38745451058776,71.54859797026965,62.013213272523686,53.21843469094725,38.23340009041146,25.382645865124715,30.602975673786347,40.120224573937236,40.27959154064314,41.75875751450988,42.65425564814935,33.6535728382955,31.15697048112381,43.3511402218504,50.47061233268764,50.242673325692465,54.81081753904282,54.70919558374399,46.93010751291288,48.59078047624259,54.46131790405545,48.99446848609569,45.77383768994336,54.09506299421166,58.90130664772573,63.026361979847266,76.61953548725873,80.10967645366698,61.29680441617617,37.21737463569639,13.25835439397262,-10.465229775024614,-12.893180377755375,5.88962739420312,12.85153639895468,1.0187220449621766,-11.35371943422065,-23.610314600091147,-33.01052639042098,-25.711284733619046,-15.057451366387603,-20.03389411196706,-24.284302235636705,-16.522913698866223,-14.30489355594945,-19.036475620146884,-19.411072680496705,-25.161323453792264,-37.47040326198421,-37.902844755205784,-32.939768850353325,-40.18965725258491,-47.58179067500194,-44.07804488692941,-39.59530903079943,-30.89580354705332,-11.090321923314109,1.4791975467291523,-3.0484809451850823,-6.886069640903053,-5.620693492031985,-8.562499950310174,-6.82031290361712,1.766951219942308,-1.8683045794492976,-17.015389204369754,-27.423726650728188,-36.51330167889905,-44.19021669162736,-34.05496194006865,-14.706435690527877,-11.374829669082374,-18.79668033615785,-20.708042315788557,-19.95669014453129,-13.617982343007625,2.787863100811143,6.460012898266884,-15.519128598357955,-37.14996753360444,-42.88277485116916,-43.77359169185529,-38.79291111449928,-26.15637156004248,-22.88293450433693,-29.282380436869122,-28.707244661221118,-27.66653068061167,-35.626117356617016,-37.190042747219735,-28.278830831699274,-23.719021255681067,-20.363807149376854,-12.588334990884261,-13.581025237247477,-21.586773062178782,-20.780062424389786,-18.137335341163165,-22.43248788036881,-20.605516312413602,-12.140402435208625,-11.722644634455756,-12.701154895545125,-4.986750488498224,0.3572717852803343,3.6656715484992777,17.10267504084091,27.855810101702502,23.22150625757756,18.070293875333782,16.59573550136409,7.322393944316874,-1.1193548884287277,-0.6407192383318436,-3.861339539498419,-7.888309073083581,0.9141627968361985,10.794020255957369,12.76924034493555,21.474938066955993,36.03715151263064,43.51516443711364,52.121268900938645,64.439286871569,64.3211829666759,57.18987617828019,58.59446035035588,58.06974646774483,51.903526685356866,58.263525416110795,72.29616286043608,76.25113769305814,76.98265339490683,75.38048218419706,56.38029842943082,32.54933927514626,23.87386989030978,17.993744117580682,10.352870630917552,19.367242460998238,37.590235991434334,45.769502217142005,50.84070656038959,49.85850776193907,24.0594140526991,-10.289382410954605,-25.357161289033264,-27.57497332747665,-23.529916672259436,-8.249450609908143,-1.3276517912668335,-18.003280892796866,-34.32935066470101,-34.46625689289655,-31.842833187245425,-30.148135169200746,-31.293359104120437,-51.7949400013606,-80.13057492922627,-81.4704635602101,-59.57474838780668,-40.63874345972136,-26.97330575947749,-21.91695568572758,-34.915710942156494,-46.31045484192311,-38.482183883286,-32.01578978935935,-39.04403231898571,-43.635442152416104,-46.11505707985729,-54.87113070390352,-57.21290680806524,-52.58278784567119,-58.59601889686756,-66.06533346319571,-55.57192165697154,-36.24443459562258,-15.281381852887117,15.556185012791934,42.430856180401875,45.71162684965368,37.4643509935276,29.73337696929553,15.39851602620908,4.0096686675490165,9.199946841453599,14.376020030298358,9.031674588105943,9.678399293932081,16.443352730271506,14.897672695145914,11.665564125974106,10.476819156901374,-3.1499227053464347,-21.854256861779483,-24.684677121949402,-20.189883695400766,-21.20814504741716,-18.56786244640527,-15.79468879787026,-25.872420736800205,-35.317505972648,-32.9965462420201,-34.13549870342322,-39.41272304986472,-33.39895487537149,-23.03970579533188,-17.089593094804737,-4.205101263061984,12.270229648263248,16.904788648513403,19.154178589145722,29.172038400404144,33.10263816477254,29.399309341029323,31.524959428095887,32.630015995267485,26.635163864771755,29.14893313378647,39.20914669899953,40.234821142714054,37.97048902726994,37.26130768457842,24.694117060324622,8.641087171454503,10.393355030984248,22.00408898071868,31.79278347786117,47.367069496278674,63.344648575684026,69.78860921153972,81.47103434044828,101.67718940886388,108.84351844142833,105.63085659410152,110.65207035754509,118.68575504121054,125.04728201278138,134.99683390209373,131.86008220909068,103.44614556410158,73.68147624614895,57.15600330061115,42.41180508134805,32.94734181307303,32.647767408685986,21.55498760231789,-1.5154454929340053,-16.01484822837663,-27.27542977314369,-45.14848336457798,-54.03586463584719,-54.6986846562177,-65.9256068283536,-77.92336084932863,-77.93339790874339,-80.49537113542405,-83.22765866006931,-65.51856522391466,-37.991558329149214,-20.18122773732843,-7.098822383108041,-3.1342761764311016,-19.592041625872838,-35.152492640742025,-30.538345700280342,-23.938637069519967,-25.766775520456886,-23.853562214218,-22.695167023181387,-29.814925402970403,-30.979922823906467,-25.86019816103375,-30.449762043651326,-32.92530889086227,-18.34634298908722,-7.093144456116354,-12.542017883205705,-22.660801811727104,-39.14466214971999,-64.46378138886543,-78.53357810402721,-78.61415903436979,-83.91399125489615,-86.71261547099192,-67.22513195410055,-35.06787793893342,-1.8492048076427539,36.0472062218809,63.810588618965845,64.31521559232513,54.340073206155026,47.93255986357171,33.1893031591277,12.264332104880747,-1.7090151554292075,-16.163013510561633,-32.499497430830914,-33.939413460058205,-25.55669932404396,-25.340262601844554,-26.28883079673812,-20.087780526819664,-17.150473349394574,-15.858983518859386,-7.642504648655645,-6.233331603072594,-20.6853017503962,-35.386110783054626,-44.3231888466257,-52.172742724979514,-47.45217289092976,-28.027033025686507,-17.24115567301292,-21.205308125531356,-25.03059882670364,-28.280764587353325,-29.087766001823855,-13.632317853906372,7.82655969349795,15.246084507163133,19.405245755470016,31.77866885029238,41.28806677738785,51.06391170144629,72.29100446704118,91.07930538805365,98.2890203827692,105.89747527031787,109.87689288604612,100.7953817011981,94.43193429078377,97.3033984643418,92.04582170834595,79.69893248533457,72.41946816137457,63.18707558907766,53.59638352946669,57.87882760722797,63.186212679757475,52.11311072811088,37.803339746065696,27.00113756547377,9.23722417815409,-6.10087435728258,-10.78983837483741,-23.14721948522162,-44.53371716891303,-54.29694423655501,-56.838410281165245,-62.83764926189099,-60.04470470359425,-52.21248760348333,-57.17214586555522,-61.55713412973644,-51.554852008242705,-44.28774082910938,-42.1399680549454,-30.26601503423251,-19.894871666013852,-21.67106234652224,-19.431934003185916,-12.948403788720498,-18.34929993040008,-24.843290814256545,-19.3188652347159,-16.732237314927563,-20.088366212713787,-13.138462330253596,-3.1785484620576416,-5.193116143833473,-10.119635320382425,-15.344240254643681,-31.91721316577883,-47.82260857898135,-48.011748262230796,-46.3475736596016,-48.013123873953745,-36.2984541243068,-14.847807050747694,3.970830565622947,30.895959540422492,65.60659298879196,85.13191918390946,87.17527448610448,79.50675362740026,50.277843951655406,5.231105122356057,-23.309405643240865,-30.711366634030988,-35.31253187831359,-36.989855156446545,-37.855406341235685,-53.579002192398235,-75.51720459399029,-83.30232638351343,-84.32484887623326,-87.24459318974435,-81.66226871763718,-73.34486840495015,-76.94756437612277,-79.69185550171926,-70.06802183549684,-61.924456177821476,-57.67236785851772,-48.10070507597229,-42.98979688013558,-44.84127215658272,-34.31019389447293,-12.802996828998419,1.7450161204735846,13.288469094979563,25.95289899252442,27.814846177304908,24.414053570100663,29.07738293787017,32.329955609240976,31.055860690121328,40.295936114639645,54.5479522516373,58.475069382494326,59.01514821233566,58.905813595875266,49.30260098139321,43.778804210837514,55.651009990942654,66.2950128106586,65.30784262377088,65.16293971530045,62.67413151301993,54.27129673392655,60.22916033999427,82.17202195567324,97.26766590911849,104.51618612899948,108.08679077059625,91.39074319484502,58.517724281591065,36.86047239604041,27.226902326309094,19.55504778221871,23.67636475422612,34.75473376276255,32.72423909227982,25.692002205255925,24.64377707670459,12.656706974538858,-10.49255458021119,-21.819228167427852,-22.88795928305929,-23.431841253084446,-15.832721569880995,-10.909491171116361,-29.354360698224543,-55.121405234856795,-66.24276065973523,-70.36095025529224,-66.92002938432596,-44.36133803042587,-20.607132421814725,-14.639634977535575,-13.184274170260426,-11.76481755219,-20.28196724123554,-23.89744168097398,-13.025138611871022,-11.565791622176906,-26.32340291494331,-36.31578983381977,-38.54130468149654,-38.234795824462985,-27.823543612882148,-17.228045845423395,-26.277932702326897,-41.08524874615794,-40.31744661999631,-33.50850233298342,-29.5209637388642,-23.54993303735607,-23.9992007184316,-31.831437995032534,-23.20807057458438,4.555465380516245,27.52255234236737,43.37937084495933,59.493820170212956,63.63217928658456,54.79401618141152,46.35637694003575,28.56920944410004,-8.140925190312526,-41.10422308471787,-55.29200937870728,-61.87066278526845,-61.14335950719353,-50.41525560308898,-48.7375684510834,-60.560332955921496,-64.70872299039743,-61.80804880948399,-66.41429744875236,-68.81188144408604,-63.09774355928341,-62.94238183183152,-62.285423971655575,-46.92982429742675,-31.07318120378332,-23.94637145020904,-10.165668955632768,8.732424314041069,20.294022871085808,34.64673051026982,55.08235558837693,65.81055379061864,72.24756715935001,88.1431924832328,101.41178884197072,105.37767465480252,113.29239686487975,122.2915160720832,124.32612977376569,132.1605705110233,145.0053417934015,142.45172454802395,130.6281164240268,127.23567428199175,124.7771089443279,120.01085055109121,121.27139076871501,114.67585910575508,91.16177349023008,73.89183253402517,71.47996533983519,68.05577844927885,65.70276152852645,68.9286225298543,64.59384704699335,60.46101356736983,76.16006669097567,93.61673342880626,88.4905414058151,69.51847662378538,41.21248485251681,1.4119826830268583,-26.189937563236988,-32.28411433810371,-42.638682148028096,-58.847308305235664,-61.767723771932026,-62.88119644252929,-74.44738298783075,-84.51819453318939,-99.9668730608069,-133.13116198320523,-159.02428541968263,-161.03859483264915,-160.03570077557623,-159.20373382658752,-145.93720259091788,-137.88382947004112,-147.0036591887016,-152.9564448126149,-154.59130320381354,-167.5395246316508,-179.18250266972592,-179.1737604669386,-181.12342900245778,-178.0248831188315,-152.08448158045977,-119.38179549572538,-99.46587714683133,-86.54640216927571,-83.69570159812469,-98.5157326580555,-108.24799919937999,-94.04667460470851,-70.4087691908209,-43.55881826509831,-10.859489678183236,3.157058874480355,-14.621020398930135,-36.80179232955234,-48.87064731244706,-57.873988582943994,-52.47464788313496,-30.104420501310308,-16.82211113802061,-16.601278476275134,-12.549383747261407,-10.9273747349515,-12.988749627513315,5.0850407737622625,39.94350358527827,61.83879776667624,67.17371752936855,63.09695660460646,45.89083880616654,33.288278232816005,46.95573376670008,67.23079067885251,72.53348085802611,76.69452709774355,85.33082926746772,84.76569528636158,77.79770563912749,67.29451767129189,40.59355580574428,8.09911492936381,-3.5521691004937206,-0.7088761355677786,-1.3817198901259502,2.5496856427183294,13.402937162088268,15.99090893418402,14.111946902568487,16.04481787943856,8.864655071209228,-5.337018265324658,-4.8684881673056815,5.306142164755384,9.290292272541727,17.126376743374344,33.26585717091243,43.2879059515097,51.42686328814707,66.63423946131083,75.02168548161872,75.8688667272904,87.25947434802879,102.04669001376146,105.28999166425615,107.68329646033061,112.70158241214949,108.64922130396747,105.01033490542625,111.38191596872332,111.69727321814187,104.97971936144626,108.08640439686828,113.50866603319167,113.78524872242187,126.25764943758173,150.30619513076346,168.00189506858783,182.27784477647083,190.2435358630915,169.16011437570234,126.02906378537872,89.9646229627732,61.86162114236396,37.718857698083895,30.385839336423942,29.398463810777447,14.491110947720903,-0.3629644986940761,-5.308168506979516,-18.96291029064165,-38.0136013024556,-43.388527467854736,-45.48335285715236,-52.459005910156314,-49.78982076918217,-45.69351059057121,-57.8750127532537,-69.97594879551558,-70.66206690426066,-77.95976656987709,-89.28367056972117,-84.7219886570074,-71.5728639523403,-57.385993510323814,-30.417261178259572,-3.68079380134132,-0.8359165250722387,-7.352623765056401,-6.234126735959058,-8.774998246760264,-13.504439981729018,-9.460038155555559,-11.865056804231925,-28.105806502687805,-36.310826334472104,-33.533011494440345,-35.49624436425047,-34.20334089057586,-23.89034776212383,-23.896216529230507,-33.126269041067275,-31.645754790144053,-27.07819364266928,-30.18245848927082,-28.550396363067733,-27.102938699071217,-45.03145160579154,-70.8811284202953,-86.840462404734,-98.29174118507768,-100.41154965518216,-81.64006438911038,-61.095730640890274,-56.40989935501109,-52.48179544785052,-42.354443359785066,-34.79296359840983,-21.730884028730188,-1.842886873005508,4.1823523849111135,-2.5403896653972846,-2.023433098903314,2.311513778243761,2.5305739962640676,10.126427545355932,24.084432818117946,29.355311544574825,31.66092750699358,38.08231688518505,33.453095614744285,16.526336470038473,5.507116103964657,-1.3530850848103626,-10.850979508709818,-9.069975033044255,3.939070646941248,8.456558511499658,5.713622899844266,4.917772931788229,-2.9266409573204752,-15.225929005132672,-14.172816503664793,-6.005360529830827,-6.102272104616508,-5.768502631830202,0.33003678341954723,0.8220179103815664,0.39312091011331374,8.504003412362913,10.418324315843215,-0.9708542524526989,-8.569424917178623,-10.68505676401991,-17.704405547441997,-21.143923943562264,-18.8518899082228,-26.083379331713125,-37.200455450286945,-36.62666580032515,-34.63503984454369,-40.65846525582962,-44.68983712252421,-48.28778469670679,-57.395065215617876,-57.90894334532626,-46.187009181289625,-40.22023773540782,-40.58151558532889,-36.133832160817235,-33.57576711489125,-34.20595145281628,-24.644138595299285,-11.555582243350017,-9.725879909574864,-10.056530121032583,-6.63483278022523,-9.918404003607387,-13.904493735023182,-8.487660498226568,-5.843695349166117,-8.714126668305386,-2.334656227121085,8.741384823102102,14.348452288862132,22.868268105540682,30.89519461523708,23.533951652902516,10.313872640259097,2.5947926294318524,-10.846874611553725,-27.700922977107385,-31.194723015298333,-28.562437833785598,-29.977240886936126,-24.488085807032377,-15.018418197954524,-15.054725678446973,-11.550350861844947,5.257506450042817,15.656802875915364,13.093689872745944,9.834919737927809,0.19019672382568453,-18.162470268289397,-24.9805824637776,-19.79692723769253,-19.193175455517046,-14.552554327425302,0.9912813237708411,8.179980792128049,6.350086425672547,14.51344708361754,27.658165235046447,38.67846363991377,60.82639499537582,86.83551066997244,94.17245079178691,90.78436688200019,90.01901136312625,81.90079174485889,69.9509110051075,70.8743556982381,74.4500529380706,68.07079013085794,64.09353254644324,61.66814268074084,45.8964628422777,29.48209867942635,27.622401642450463,26.071833284510603,20.63131514841151,25.740165757686498,34.780483545011265,38.76178790856072,51.883982691531806,71.18961877243447,73.9189207158944,67.1434021909226,69.92221525558503,75.041769688724,79.3466848966398,92.15864973260852,101.0089121093508,95.36872479010651,93.090536427052,97.33883267967053,90.30768109696216,76.9184784999922,67.72626149805396,53.23184558350033,37.12301757678097,32.79904004876886,27.15315304031958,11.2371421572789,3.241922552176465,3.2639339514863277,-5.51141417716457,-15.976673955643149,-21.03720742004884,-33.23146379696074,-48.46505581059894,-54.13017635365109,-65.14954284029916,-90.68233875472582,-107.66165001731414,-105.90693947721371,-97.12086375447728,-80.0871892373227,-58.2957023290537,-52.8801937095638,-61.275476503517815,-61.97878297893037,-58.55142197209342,-61.394947466949645,-60.7862260711479,-55.90777313784733,-57.76798820206746,-57.91539862449302,-50.175689510001625,-53.58364016089833,-71.97642185982485,-85.00828615192452,-89.59463202590788,-91.38208251247008,-81.83455663791871,-67.69743099213744,-70.91414321904156,-85.94961363290449,-94.7266451154472,-101.30181058289972,-106.11641418518003,-95.16537979706622,-75.23655459106939,-62.717298176295486,-52.52380744018112,-43.42439661999423,-47.086421358512034,-54.105930528961906,-49.03023472832826,-42.33582175590426,-41.55331904128126,-36.273336139979776,-30.798748857698172,-34.92263853697082,-37.049430398659574,-32.70562190632683,-35.06000095136103,-38.46660150998339,-30.427516726866912,-23.190045567296142,-23.42464321300853,-18.309321981114742,-12.643514779796622,-17.89738101862392,-21.18909618673283,-15.647741880874815,-13.395655363188345,-10.501890382562262,0.30220560638038485,3.0146031599924448,-7.001328106753771,-11.304264546752377,-7.350874770446992,-1.3598812709962647,15.312669115671229,37.78599684004792,45.417812964215294,42.30480026720217,42.822630483468394,40.1252150504138,33.486121924442344,35.207811325495626,36.65437871380992,27.569575514189687,23.706405018105997,29.430277674708428,29.106207196057234,27.33857199260754,33.449137290060726,35.03992344787083,31.640389382403235,36.94265681346237,42.25045175252656,39.362884072461895,44.689652853615826,58.938268320116805,62.2408843469347,56.45550210590097,50.67992383897018,36.72855185925153,21.25899717870725,21.160158421929385,22.837324574074763,12.153939742073891,6.085365046945887,10.111690576050659,10.12448891049041,11.103667879791264,17.33867772278708,12.104616639524071,-1.4471114814215902,-3.655748017316618,-2.8435067088240933,-10.58825526209371,-13.436500309550944,-11.16898566452775,-16.695877577524733,-17.241510759825964,-2.5977613634786736,9.886151109608017,18.04498325401615,34.73367704847529,49.210310841171484,54.45508453930403,67.62557245662167,86.75989802104601,94.62863827280192,99.21919900821689,108.16802408979262,107.37688597098621,99.79585341284117,101.8578952674084,104.93489225310682,100.26968279891324,101.03095255056618,104.08124942595566,94.22043688411685,83.34409055072354,82.55421227147102,77.59962708500922,68.66830894891405,69.07428793001291,68.06648090478407,57.625640113922024,53.69234202660033,55.66664447089343,49.56830119644082,45.84288405634273,52.08420983214062,51.152201581587434,42.19897016840943,39.91067920810494,36.72270464154761,26.47278844804203,24.01728740193937,26.475025118715394,19.093410351499138,14.562291550035978,23.43713721377041,28.896435916059318,27.554431971496918,29.955360034863187,25.41647802292774,9.383519389930623,2.007118472245284,3.8368412688856526,-1.016762510574655,-3.926788480988317,2.473839323822232,1.9859858553720207,-6.238723697633564,-9.799254417164537,-17.644146235536255,-33.57829633644121,-38.21112760516719,-31.117908195502803,-28.890135600304664,-26.778472059166848,-21.475749476256986,-28.058520950167438,-41.309100476324794,-44.16083831665017,-45.60274996706778,-52.334012735558375,-49.96205915220956,-41.23222260597987,-39.03412488417814,-33.108908247243306,-20.20578641393665,-21.104143822452023,-36.79106911739189,-50.31072766731201,-65.4278469871838,-84.31873732329868,-90.41441848517906,-87.61989537824186,-91.9977692780256,-91.9955849446016,-78.79397526890259,-70.14250049813597,-69.69979923462674,-65.99216001344583,-64.82552809560916,-67.11683110980368,-57.05045320886733,-41.02208889526199,-38.32163291617633,-41.03393744640291,-38.2871158287074,-39.46912517159608,-43.933457762728835,-43.133393665688686,-47.47653239538184,-61.90471321870905,-69.96595439763799,-70.3039080470516,-76.64661341868909,-82.88468607138844,-80.93852564533405,-82.95447463070995,-90.39956569469474,-90.8069422406989,-90.93388199716752,-99.4736581836473,-102.97341467771196,-98.51023674550916,-99.29454517041698,-97.79279236320913,-83.81051814434716,-73.33829685948736,-71.31209078671189,-60.77883179422828,-44.454194198558525,-33.27242307300341,-18.981229501165572,-4.442445440235803,-5.046477676495901,-8.407206673720408,3.552364273088317,18.30693995723311,25.409206278577297,32.28797585558246,34.14983319645601,27.551908530322272,29.675182764471256,41.23195324733165,42.38983990065426,35.72148254359535,33.31133257469407,27.884960374841604,20.660566367002694,24.814641121750952,30.975134636568622,28.09739442586922,29.661776532359173,36.961969239007544,34.49265896394259,28.98833333184741,30.08680474796619,24.941069096547338,13.56314462483288,11.122333849316599,10.738592874838618,3.7586075675203627,3.6576250663294987,10.479544459304117,8.6724843575711,4.885977397892168,9.026853627984352,9.228799018672483,4.917455733395959,8.800395699392089,11.576727483109458,4.427873433212623,2.8940989854738657,9.168996975540246,9.244218737978226,8.944986739092329,13.651667108207594,9.105982601207153,-1.1891186563144207,0.35606528223521705,5.544715146344051,4.611908610397524,9.768355454189413,18.05938193659663,14.575004114361072,9.95063935099705,14.627138139399447,16.104653250958602,15.612234000634736,25.001545932725392,30.787033501346954,22.550749252489254,16.435223907263662,14.362155933833595,3.5943217610309675,-6.636535667435935,-9.329468210884912,-17.752032397240303,-25.763125440868667,-16.481339305777055,-3.200257316303556,0.7632904964082083,6.637552322226183,11.562900948770828,3.845954685258434,-0.7533153281216894,8.982023019831868,17.443789719040637,24.720499984475502,42.04604829440852,53.473419865064855,48.04082991385352,43.732232214303764,43.85737699458019,38.14776006752299,38.91977269348798,51.1021383577839,54.85545024658223,51.22171892850957,54.783100248668475,54.39808031281938,44.57870608700502,43.148305268598286,48.263745245515,46.72791760076899,49.131790478283385,58.71056863605501,57.69795772357674,50.52527669478483,53.19611757443281,55.397933128498416,51.00284286546914,54.55475526285208,60.437625643473446,53.979840942679346,48.37310840623824,51.966482401359826,50.163688463309114,45.973498137215024,50.55511087177972,49.84536225415339,38.89114347249382,36.518097090623606,39.59841928778894,31.902611290984805,23.10749076074206,19.851903901840878,8.929399535026953,-3.4907059643995493,-3.1797682896034756,-3.2989972240494563,-10.552727574381091,-8.053534176625506,1.155922302308313,1.8143208249885858,2.9199482225672364,9.606695720111635,8.592016035687674,5.9947276821855855,15.166202760723127,23.09982338763527,22.786880671743987,28.313790129145772,35.361912349036565,32.294438652692804,32.151827423303665,39.719533330042076,38.46339968169376,31.410159532727462,30.814007695448243,25.74978909193947,13.269270223280998,10.798154499931787,14.779943542597838,11.718433897292712,12.105818924379642,18.641234387627843,13.910426813376002,2.784908215246277,0.3931904263003614,-2.6765253584515976,-10.296639632431047,-10.458569571855183,-12.61459564490883,-29.29827279871349,-44.00794481413928,-48.137413070722744,-54.916012662582204,-59.72178674824546,-52.786189092022994,-49.581340301882264,-56.05819811282479,-56.54350486578859,-54.4845514708109,-59.458231149359676,-56.632191099508525,-42.880910709051236,-38.53805496352887,-42.983429716210104,-43.74108288008345,-48.20355040534996,-54.72060504254691,-45.85239625149653,-28.661322869910606,-19.544500524621558,-11.941124582219366,-5.94232088334593,-15.353767770368538,-29.514584112407118,-31.348854125691705,-30.813322776394337,-33.53920042508534,-29.603800914031744,-28.38868956603983,-41.934874542868336,-53.63089455457316,-53.21961595282323,-53.15927232942657,-50.10817020486319,-36.112215145553684,-29.500757591906577,-37.89036288925925,-42.579217868050875,-43.10139672857459,-51.670955348303664,-59.603827585279475,-62.56489172530658,-72.1737919417698,-79.52108319652373,-68.12283781842797,-50.816132231785154,-40.698643269229535,-28.335186202302168,-15.537392638373051,-13.992424152588951,-14.825201798708575,-11.35871146938332,-17.2216770374114,-30.543758819696862,-35.05378666595142,-36.904002224421845,-43.840974036126646,-42.26285462668801,-31.900887927652285,-27.753262361852535,-26.043014673507773,-22.406602565898588,-30.128311980976047,-45.87286771600978,-50.61539325287733,-47.69313019244393,-46.450762952461076,-38.12860909721977,-24.803133617727752,-20.014106238426066,-14.234128096779688,3.894706837104412,20.067330139162348,27.57294451253334,34.75421194715395,33.40855211350336,18.125510697117893,7.760086532398946,7.704654750372523,4.111820234915615,1.6541904356854025,7.483605984340352,8.085388990919352,3.8512859402422484,9.495791418523387,15.422040561382167,9.050684810103041,1.1419756542443342,-5.8955812795465485,-19.604936333927572,-26.790779778954885,-19.04789884798467,-16.335446456444977,-26.217301866866254,-34.583684304575876,-42.36232386109247,-52.2111211191843,-49.63060545014892,-38.303711779959094,-37.25893266351981,-38.173143878870405,-28.7821035884173,-22.845628719941605,-22.92576621329178,-16.724450242367652,-14.422756219673394,-23.882390112373532,-25.571992063272965,-14.61460841157162,-6.308545244149238,2.795060121721683,16.196516507916957,17.197383110723592,7.705646923313546,6.16387790107746,5.942015953556372,-2.5286487637716095,-5.652874163820051,-1.163858004667529,-0.008773914462258836,5.28347149647123,16.69548813087309,15.682519858361847,5.701229366098626,5.650155083014982,8.063775149324938,5.456027824947217,11.04709009049075,20.949737862605424,21.716855671878317,24.461708375633403,34.15189781276618,33.347678498889344,25.28898185234894,27.180298013390242,30.69186503863293,29.409448170891437,37.64650335506745,50.136241151914106,51.393071716958396,53.465874938824655,62.87285320309809,61.69321946097972,52.3322857875343,50.35852306521643,46.564205873230165,38.27170981386943,42.872556104490954,52.23543133786508,48.16278938235646,44.4090124262858,51.48629830912079,56.8316390639733,63.92238306955636,79.8585196023944,85.8421661709754,77.20733104946366,76.58391424041528,85.1768714532385,89.40850363953996,95.84382335189316,103.32677764544727,94.91019208345716,80.35331371443776,78.10903492096787,75.95641727558736,66.3004493075651,63.07194428993619,60.7517220639802,48.29213611716932,42.83527666862211,51.77386633840705,58.35979612349476,65.79955739214262,83.5575999332123,93.74236170235136,89.52532358139956,88.95475376499317,90.4746384617823,83.98109111618956,82.53242449350952,88.9926113427005,85.63693357553954,76.52149668259568,74.96086119052111,69.99419470033246,58.65765951633968,57.35675361365419,60.14224206661456,52.57704785787021,45.80777339490612,44.3286570756088,35.56831807884405,27.987103252847,32.9114901869592,34.02356149281799,25.201128973404593,21.865646439414427,20.327821833578735,11.725859103059857,9.723783734302987,15.991436919180554,13.655090118614023,7.33161149664451,8.035572945599304,3.8986618396959276,-7.2619703547289625,-8.327314445883665,-3.247140156969767,-6.003703363412124,-8.100102926531914,-6.818462600462517,-16.00840059844759,-28.870347463928926,-32.09111988541961,-37.303026670563604,-48.633397065150774,-50.75410459667057,-48.26786183896907,-54.34961641249827,-58.4971088710718,-55.71507385128141,-58.61345328905273,-61.8049086319802,-55.58713946668,-53.98780303384889,-60.313017082111045,-57.26203741997112,-49.23571788498194,-51.72046539860277,-57.03602882979959,-59.265355623235415,-65.70074176576176,-67.29550790394262,-56.49037906831015,-52.64705367058756,-63.253310897549916,-71.18683419440521,-74.53714923642221,-78.68333439877854,-74.29385360404382,-66.76508916817548,-74.92597660600379,-90.14077970451581,-92.9807132875413,-87.851670730407,-80.39870435868991,-67.5798389460142,-63.838656105565306,-79.55897175059664,-92.35958257468354,-88.0693728473093,-83.14678234362694,-84.57009671117358,-86.2717458539314,-93.75048252159058,-103.47299038276327,-97.87951228531679,-83.02866516060612,-78.44939868165284,-78.86838815425264,-74.05799474751866,-70.97205693671543,-66.81298462101506,-51.44768544352049,-36.67093403477418,-33.20920254717817,-29.573056525872666,-24.41304465078829,-29.70249006956682,-39.31875013689927,-44.00297112063614,-50.84484903117545,-54.946792348652686,-40.56125056319738,-17.673910891037522,-3.406251913347714,8.969314668097368,22.310486535980083,26.42556813146428,28.48413935149213,37.448346889717534,40.905168790281095,37.43312612778068,41.689779070579206,46.88599959206109,40.2519687429227,31.659227253290176,25.341098112051696,13.257376890274163,5.126338124814476,9.11947606143269,9.040255983221632,0.13944138795057004,-3.512321202339714,-5.045031068078435,-10.611160640231159,-7.431736026864771,2.7055498889127567,3.016484982285256,0.3814320777061866,3.772990786245077,-1.4288436526375357,-16.38024078047668,-25.03387664345629,-30.327004759952636,-36.342730988573564,-31.8412968529274,-25.388793368587177,-36.607497111870295,-55.41683299845358,-67.08869206972624,-77.96227717987443,-83.92239117381112,-75.27301574174456,-68.0054327938418,-71.88413063647411,-70.35266467737702,-63.6163208571741,-65.42638582279632,-65.26854797712377,-56.77457863694761,-56.92335278993413,-63.32314301580109,-59.72477925794563,-54.76742349112462,-55.22686881240089,-48.0152060066051,-37.59080824162065,-37.00001454519993,-34.42509983081515,-23.81258093168821,-21.12217069399704,-23.475304190585604,-14.906235852961622,-1.7272851812719692,11.47823922784346,34.47642384819477,55.067877544610056,55.52503588137033,50.171350895524995,48.842892405430106,36.90545009898504,18.915057298255707,10.591560860919468,3.4152764310561885,-4.142331823441407,4.634402982493741,21.615922301378845,30.86715002599802,45.53109939998002,68.57701172857341,79.48294602433023,82.64495199467235,91.92375761056324,93.85571617088522,87.21630150261338,92.31145811691493,101.82484826983047,101.49337943857603,106.05135874580577,116.24866594677891,112.01314716323749,101.83001442067513,100.68902671682262,93.40795017598828,75.72640734460724,66.99680422086732,66.10046320793947,64.20351749725728,72.83543934820624,88.44185874477795,89.2398280041331,82.37015435103966,85.18046096276666,87.38074311600025,84.99161518818842,91.221415040126,97.73887354579054,93.58391407676429,94.08447522906326,102.62153134622295,103.17903954594826,102.417353484531,111.5953042359746,113.76994124883598,102.00989539173762,93.65654086538926,87.88018747690384,76.62286464946136,73.25525401461226,77.48106750574802,70.23337798700878,60.17701089687138,65.3996394135047,73.82917350382445,75.82593463560033,79.80318579084656,78.77152393968905,67.70932949826194,66.75327339828237,78.04339024150717,80.28782558152821,76.69230849998735,80.05364430069791,80.54989905175307,75.66942757386617,75.81505787712321,70.63369735753398,52.761245496903754,44.30130636541674,51.12817544365399,51.791525923935815,44.244548709071566,34.20268083215517,9.657129900645565,-22.766536375158157,-39.2426488039113,-45.34235564574535,-55.05092425187787,-59.21544886069036,-58.84106258099252,-66.78997542537019,-71.11673692243725,-61.16570269456583,-54.54682018849127,-56.45133121302483,-54.83831796803287,-57.48362169932102,-69.22928524006706,-72.3884216441713,-68.18178209454103,-73.37317948371015,-78.27190066997426,-71.92907949297545,-68.79039609217392,-70.01207718358957,-61.88712359793539,-53.6801897853898,-53.14786266298922,-43.987248140374575,-27.433793600514147,-23.07572149508826,-26.533076509595258,-27.14249989597586,-32.4623240876409,-37.89500650604507,-29.32910080459029,-17.820213616512568,-15.13392825633958,-9.774343415359718,-2.2601435317263285,-7.335058048421661,-18.90082763754827,-27.480950428859927,-41.907890083360016,-59.81690571188423,-67.34657461869766,-71.44200104752008,-81.59296790732556,-87.4045220497273,-91.02031961892061,-110.26779045048464,-136.88149274685844,-151.4978988865879,-158.82824140524298,-163.1926521442711,-159.48238806444374,-159.82168213757666,-173.16545846975606,-181.6852645900981,-178.46383633764,-179.20568686083757,-180.97691630993813,-169.07956948769674,-150.62728235862338,-134.11944064011453,-116.27996199277544,-106.41272985943019,-109.4711398989028,-102.33136404659189,-74.3555733757442,-46.647839629985015,-30.266172108763634,-21.066395912926296,-23.92824130515859,-32.975288529115964,-25.73784628545777,-4.470230884342259,10.07734943594367,19.43572038651358,28.288366033794155,25.349018268534493,16.793123111019685,20.418603779002858,27.851125633622612,27.459986987547225,29.479413618588705,34.56891896657403,32.67093901457908,33.14555942805099,41.22511123262709,39.84754327712397,28.19120032795744,21.77156531827034,16.77789210572397,8.36150867334241,7.700555629052058,9.583005480478697,-1.028339573785388,-12.809865788154024,-13.499621261973598,-14.059810584901614,-15.098131681235802,-7.529437919703374,-2.948931973680317,-8.15429074727619,-6.990099909610479,1.3380654827620435,1.9490179724545726,-1.0684962188933769,-1.9535072746288205,-9.385523680189461,-16.909843670241305,-10.480109510815016,-0.42029386209459574,2.5239540645128824,6.118916145756122,6.235460477133048,-5.738629915490442,-12.451271570161877,-3.0612187516315905,5.57171416997047,10.004621118900534,17.547909658439202,14.73154853776478,0.454689103840491,-1.6732126331714776,6.543058512520927,7.129722194620653,7.943987149312556,13.878697358015712,10.578062557541251,3.719752192030889,7.1182682307052865,8.443745369365221,1.506584355944978,0.9956245299113062,3.1345997728152812,-2.2681580403691664,-1.2914360589099831,9.201783980935325,12.21562126431442,12.339029844471366,19.53797123452427,20.098530799690437,13.820792578761907,19.287434653769935,29.339430640429182,30.053886371608126,33.5428950014782,40.44297607006427,33.64348586551809,23.651766194951456,28.1400444749663,36.123404882239406,43.54312980179558,61.72766738558818,77.46699451824489,75.60610587169484,72.52753124455054,75.01514251809553,68.06573735291678,58.275835216039084,57.79767907286964,54.30267991766531,48.36907303513348,57.52511585983401,70.68783108945935,70.33347881299271,68.88561131819776,71.29440869508538,65.35261749639164,61.86433690131277,72.43057942940654,78.8078672806181,74.99526674874379,75.7497917709526,74.43059014982602,63.15025926739891,59.98603189752495,67.49495649538059,67.7396221824674,66.54159992725332,73.94102522518354,75.26221456995796,69.37370023851729,71.961862018715,74.14134882587476,66.68672479296377,68.13770935112544,81.58345489149478,88.73930766952634,92.57471785655261,97.99353097048666,89.55923988032497,72.74957303248375,70.53688367195477,76.29440153114913,75.98373342364815,77.38971473900199,75.95611950098248,57.08687527662957,36.30390307318348,30.51065715917419,25.628395951968933,16.88038046681829,15.32521462451137,10.925525889553235,-1.339521972908396,0.2778320685656306,17.646205133353998,31.025667110282203,41.87051048925795,54.49221143677524,55.42620423263262,48.30633764880896,49.8711497335305,51.80076659372014,45.1353462492379,44.474454937821136,50.69405391839201,48.972855765601906,43.88353614833817,40.59407285479361,26.992673563958075,7.967678418137783,1.4685846396421658,-0.3359518486457962,-9.223347625483578,-15.23916697811315,-19.17478738144051,-31.136172755972964,-37.65745258300758,-29.442260480596293,-22.932350288602905,-20.644377656839236,-10.976942403872613,-3.825873076704787,-7.229524701747561,-6.771367279782197,-3.13579979091126,-10.15749931613804,-18.118361831985627,-18.472465824585015,-25.309820864256544,-38.547006288473554,-46.67847587428369,-58.89659005984406,-78.2914442486128,-85.94094828229143,-79.9218396287008,-72.88842091417527,-61.619023395982225,-48.6050978238792,-50.845744152210415,-62.384216974582294,-63.51635202937826,-58.21579760682247,-54.39638309589935,-45.52125278612915,-38.833596405576515,-47.28490295025572,-56.491805824738506,-53.78768656764934,-54.547950206734825,-63.85956241064108,-69.91736612518224,-77.55339210957446,-88.22516151987756,-82.46373417376957,-63.83498408624163,-59.58626592458444,-71.04077175772225,-85.81323321265913,-106.31686835761153,-124.66337844923437,-127.10730882210275,-129.61168820299025,-149.31323374409527,-170.0689816322553,-177.47271771603255,-176.00520145346562,-163.04868777814804,-141.67999219357108,-132.9717512507921,-136.70853017066298,-130.85673121125146,-115.61662613434726,-101.34216897530837,-82.24632654688898,-62.06053236898383,-55.40978374778395,-53.627651771163116,-41.34449693971358,-26.67996959217017,-15.103586398835331,2.2589924942454163,16.568111644272246,13.97225725615862,9.437181608985012,17.56499627108521,27.727517123943226,36.41103044720454,49.106397003856245,52.73977200103602,41.96365600409247,38.32561829226578,47.47715695032185,53.725718324604614,57.20197267990164,58.93148719807026,45.59366659934606,25.1589616185344,20.98513967179068,29.125705639897287,34.48117498960939,37.60497634685648,32.135880760257876,8.497970256080574,-15.232374010692013,-21.719257645552872,-22.748632785040975,-23.37144212893045,-15.679786443930148,-10.197627791376274,-15.414397319360745,-19.22690966101499,-23.643687892925083,-39.75990491077119,-52.76360499375123,-50.70414745338853,-47.873119483816396,-48.265085580137836,-44.80238796551001,-48.05490841976825,-61.44898788778292,-67.2458127575157,-65.8079789446007,-70.21796642587697,-71.21187133270917,-63.66844685575286,-62.37895781614923,-63.57531673038249,-55.37483649177413,-51.15511163539148,-57.63207259488273,-60.62275767152225,-61.69489405313419,-66.67082107873802,-61.58055451341353,-47.400442727084155,-43.18371246427797,-43.249832017325915,-35.26702787793517,-31.00296494403046,-33.63016695394488,-29.758142989557356,-24.64840096471862,-25.621383170689285,-16.540451649216273,3.711452949828546,14.812180898680806,22.138525830360937,38.71065139630776,50.33000540258422,53.668384032469085,65.03793074121229,78.293210782861,83.1336619539576,92.31761131184003,102.60915286748721,93.36199450116818,72.91264768048289,56.485139954320815,38.622330152295056,30.381988420195153,47.80900265938653,69.71985922009002,76.10088674056007,76.58546385563659,71.92173141619385,58.54346095025027,56.0580416099273,68.87934251043677,72.19169310936223,65.10646660068109,65.37881271711919,64.97098787169685,56.844501623762724,56.386161261325555,60.73511725014394,54.91278962065162,51.618350484485816,58.68791359836454,55.51701264354266,41.33396298016628,33.86129874105152,25.544450228329968,11.444412521339997,12.251829893100862,26.878349355350018,35.11940723442708,44.641792434600994,62.788246571164976,71.32721661219212,72.6368908126296,84.07957233438987,91.67944585649832,84.18470225352715,83.44566102083957,95.54977956228717,105.54658703179962,118.49355966040211,133.74075641018965,128.55894817897212,109.47951555223759,104.648478476497,110.30419382157444,113.14924056243204,119.88950284907048,125.47364364302756,117.08767282673375,108.97308596895036,111.68907224875205,107.64895665084043,95.2819555011433,91.54409435324963,90.10729802340651,81.99350215929796,79.94516960694872,83.40134269048372,79.71999571067798,78.89769720839753,88.05237438848746,90.7053560706031,87.03412616134516,93.19643657066842,101.98650616250181,104.2269743270749,109.69704844350221,112.4937342293357,98.32040693923587,80.75241664914864,71.76270981671209,59.55665208718308,46.76053802325683,46.72324232208275,48.11798536858875,40.85119070460242,35.69006300930802,28.44425655043574,7.201906451496985,-10.36944354098535,-9.031286599208457,-5.120263637532673,-5.85039415342834,-5.455082463495156,-16.37017534622323,-38.84352020363221,-47.6459783048715,-41.135545481130556,-36.4996280567331,-29.662744825004104,-17.851110505580035,-15.138182294041993,-17.812827563235803,-14.514707192226126,-17.63709623318301,-32.4463474874259,-41.604442549989564,-43.816237285746354,-48.45793573000279,-45.80280332604631,-33.40373729371218,-28.26877672777367,-29.753467581589867,-28.6138299884567,-38.430491690069175,-65.28029856845654,-91.92946763378586,-116.52349975855428,-145.54036543803812,-163.5247287642868,-164.22651660672543,-164.71170894170237,-165.72805021302912,-158.21517829471577,-152.50929391475228,-152.05533427519478,-144.44989860181477,-137.73514031534253,-146.48999441209222,-157.27527416460165,-158.504892213362,-161.30572199976945,-167.00369207800838,-169.50689215432598,-179.59786628644605,-197.8256703794295,-203.60867991793654,-197.6835224146676,-198.34259130110078,-200.94828081568798,-195.4708165735696,-189.83613316593463,-183.17892580037284,-166.74758939400158,-153.05333105656217,-154.1639378492739,-157.75081040477318,-157.45689459217442,-160.84999677247959,-159.0951338350486,-141.41699098870177,-121.56578401972195,-108.67411684748781,-94.51924511044791,-83.89139762134457,-83.5228594985796,-79.18327887996945,-66.68759842798993,-60.823492414821,-57.441981273019216,-42.55845993123636,-25.486458811721953,-15.156151965073725,-2.352284887847933,10.24420429042463,12.520158723233498,14.48115834493228,22.189427688061784,22.609114776454703,21.073214135567667,38.72670052632755,69.19657521927489,93.80218673038492,112.32384134134723,120.04253180388253,108.64575381006918,96.90058348260251,100.98425770081727,106.06248455243738,106.41597203806822,113.16605882480535,117.30373182916964,108.3654767820207,98.7879755960398,91.35987469929273,78.4384004968793,72.26467024370065,79.22383869471359,80.92496251883416,73.80567755961616,70.97848914695368,66.39817169997205,52.950943509880176,42.31690794098759,33.134811768930604,15.384698319015628,4.483832145673599,12.342058284102796,20.87015164462299,21.227870126518,20.53177943540028,10.258119851916682,-10.605563552916053,-19.35514109202261,-14.007751806852756,-13.203114296981052,-15.070883132043308,-14.499309081891465,-21.064450794535173,-26.81523647240164,-16.74782619149747,-5.462081924576175,-5.248459470826473,-2.2768545893153163,4.311035932575281,4.421638899913402,7.8906685147456,17.72288276783576,18.969518117788997,19.141186580971045,35.35936435527513,55.32132570601881,67.82590754309122,81.43710583491284,88.65309711294563,79.56339600143154,71.51079179112999,71.88978427477879,65.43689570186922,54.479258111579924,47.38759496702403,32.70666973651221,13.663556590694444,10.813726921338835,16.9310336960771,16.175119366520395,18.130635286155233,24.024997152986323,20.513414708228066,15.87244520980084,16.37953030832366,4.128774895735926,-18.708951274963347,-31.618972944311338,-42.72450361189391,-61.54166782312387,-68.96182031743496,-64.2037432462508,-63.818789018076636,-54.626458927311944,-30.901152088989793,-18.79713983590976,-16.948309162288822,-4.515047626058201,7.868967710923073,15.953748731871217,41.60565671671107,76.20258592410094,91.21007316932605,92.79525714804718,93.32471757798157,83.9756654363597,72.72600159600636,72.52964941870297,63.94380486365843,38.84805615174953,23.44266732593931,22.40524338571875,19.589088894531294,20.48442419855295,25.376548475815376,16.72315404865438,2.799279259181647,0.9401297206960322,-1.3144358489196355,-7.765326373044488,1.4664567246444191,21.238936616172595,34.635175488024764,52.07084312972073,75.44933577252422,84.87684171717537,84.98751771797241,91.8906246583683,95.78888975855858,94.3004787392734,105.82883767939423,124.57430955335185,131.2428739727567,132.38027124930989,132.58976240749962,118.19981955825689,95.99153293664146,83.85307288305248,73.17116869134445,56.68929759319535,48.900067782687785,49.21018990403564,46.93811763782717,52.463920456688015,67.65569649050701,73.6156921441015,73.84799888154168,83.35385201821741,91.616307426148,93.10923683492994,101.43846637326205,109.33366523059574,102.4619079652926,93.88310064472033,89.93376537977942,77.04739250661905,62.415656180618996,58.688275994758044,50.4409333594903,30.987972811094018,16.939413935318495,6.636771380074071,-8.833161937361764,-16.177257560598704,-14.61118731474896,-24.71468775241289,-43.48819055164165,-58.28060441500867,-80.26855193979367,-107.57986533785332,-116.85670047903157,-111.89387036801637,-108.85591364339774,-101.23973866867382,-92.06888954839923,-98.64662506025557,-109.85787607336769,-106.81560613803563,-101.46915880869285,-102.95101001279785,-99.65237177286824,-95.02442616048744,-97.23940917582848,-92.26109731100684,-77.19626593602491,-69.76171127554645,-68.01450810739499,-61.63494146456756,-61.40558962326577,-69.62536298844083,-70.17359978641524,-64.21427219610973,-57.67821767010611,-37.285134438625086,-6.663471453090006,8.508132346293776,7.718953113558298,3.425256579035911,-12.993607207819773,-38.900368192324215,-50.833751964734404,-49.86477207135872,-50.439999028946744,-45.653798188283524,-36.37787565139837,-39.9572980769112,-49.0537446446306,-47.36282496613758,-46.92054145435215,-55.37164508320721,-57.18818954860936,-50.901715221806555,-45.46003887623452,-36.505741665382146,-30.103120481000175,-42.42275421963154,-60.319934873721685,-59.94112081573435,-48.83476752245895,-40.97577863373106,-34.28093517213457,-37.59336077465378,-60.904298252329454,-86.28114071426117,-98.64670738508191,-106.91311082046697,-110.20906056350314,-100.45621620836006,-92.25098610037062,-95.59446656697617,-94.76100495184446,-85.37006461323179,-78.44357642188125,-69.66669171542722,-55.197820139390046,-46.53979138920294,-41.824714796338476,-29.75548336416133,-19.504294455034035,-20.094777690788412,-18.351973509513904,-8.681829306029508,-0.3125292151122012,10.292393634334886,24.527824445775856,25.713829331548673,15.51354838899432,14.861437847559445,22.252593191882557,27.281125735974634,34.83082463101474,38.19914008447705,24.076011127247753,7.671102017217034,5.1532904477432835,4.292261654762539,0.1795981019857864,2.7790735288272197,4.091805827010914,-2.5492459919833235,-1.6170589157876079,6.615723380880725,5.333555862064569,1.3417246012934911,3.4422105707051,-3.7907219905590788,-22.785029096767854,-37.10699002181016,-48.81079214132942,-62.51970181477189,-62.66606786417697,-50.585514483132116,-48.17522452614506,-52.46576974561025,-51.2601548968274,-54.4997830440928,-60.63005926444801,-53.13475674377467,-41.27645712152638,-38.720071279986136,-33.622114952531675,-22.755140824662803,-18.661921676762653,-15.775326837141062,-7.017924994269496,-6.057114724888081,-14.301352334079844,-16.742571861890113,-17.14321065786824,-23.240562414752088,-23.41887754913202,-15.05344860222413,-8.991445231091635,0.09547019640319565,17.159082972024603,27.298108182942496,28.524723523481406,33.91511817270974,35.51114326524265,23.85942520463911,14.608284855549243,13.040208534896722,7.80993209242061,5.6211072430321645,10.581374562168184,5.268883348025964,-6.703733125487874,-2.5178114651091237,12.105098182562871,21.96361551872868,32.33034576025409,38.97563644633071,31.692724099602565,27.407028981597097,36.533924334629326,38.26381711793406,27.665705875741054,20.832967596934004,15.060455229141063,8.080410583698015,12.902957047970501,19.126886834382553,7.857019381173515,-4.344456034868897,-0.6010657182468986,5.568409182949763,9.709913273689587,16.676519834735515,11.83369563795949,-3.1923016612433806,0.05015632704861028,21.74824444188261,40.10332500244107,54.92470276694006,64.89474489137861,54.654584466272404,34.33119806051327,25.49574454147964,21.320772980222632,18.205802170228083,32.088622348835585,56.59925272052326,73.17284320877174,86.36235386071016,97.05287692874828,91.45899361357772,78.42518538064415,74.34219577667349,68.43688956151814,56.031483621420186,52.45403916862686,53.395276182297884,48.96873841832783,52.77201605569878,66.6293282036112,74.52628335170041,83.3961525591824,103.83062029581961,119.09398312714218,122.97075122421684,131.57416708691414,142.15241908601752,146.05307363353486,158.0524034704461,180.1807082347237,192.33664768747283,198.13324868262808,211.39923877678507,218.25145448791477,209.68840615563903,199.30120345803965,185.19347168279185,160.54271941663103,143.91460206354716,141.9360274057272,132.90563010060688,113.97275749817113,99.87676184200751,87.89304682774599,77.97352570009997,82.07409263960193,89.94207854373366,85.06724446292488,79.86948574935874,84.56662123737522,88.28319584609125,92.73874425177365,104.47495224953164,110.97061127221193,111.44318241292282,122.22049973272354,136.67624593066552,138.5461809697407,133.33740066429164,121.80279291820854,92.99304506591713,58.78912315760776,35.32813437174944,11.811310505901766,-16.831045162605083,-37.75645000212353,-55.074981612527715,-76.66248350504925,-88.89023436973316,-90.91779638931254,-101.52226246859989,-117.48356243336671,-127.01660414015058,-138.93860862370636,-153.21763326947178,-156.6010744581949,-157.98739607139362,-168.42120266755552,-172.81241634777237,-166.35183370829452,-165.08111117147337,-166.66713921552468,-162.29853331452426,-161.78339546492037,-162.4199322264316,-148.77354867450902,-131.7250106737264,-126.87068993788208,-124.27090614352359,-119.09279565011278,-117.77411711777002,-109.47279787509977,-87.62836619838565,-68.92442323230188,-54.56278977471409,-31.63546957208215,-17.036026039760912,-36.40705754273014,-87.44649240760224,-158.1227303080669,-228.26099959443366,-256.72306745185983,-226.88322952182224,-174.57418225010767,-131.46757246596113,-96.06341062190171,-67.47405931035422,-44.714032028083295,-18.36266187735827,-0.7891354801858617,-12.035030047774512,-37.42590179532853,-55.36795638560803,-69.19264785885046,-76.06206437020589,-64.61481637581728,-48.493065966969695,-43.2823141347465,-41.226239886208624,-45.54673642483258,-67.28103437327715,-86.8631077903469,-86.05522382163238,-79.60035672896258,-74.54076989787917,-64.37778964346417,-63.58463473416535,-81.32659366099136,-98.72799218233584,-110.53407202373153,-126.64550793831012,-133.09419136103975,-116.71472521753404,-93.13007609400456,-70.19890915587892,-44.3146981809087,-31.62148050880002,-37.699673210405145,-37.51542394358775,-25.755961601395207,-19.68026226163014,-14.977609467534917,-4.2036177024357375,2.1832534446903313,8.242551691511053,27.8190723561459,48.85227587907859,57.74480174161482,67.63573796233689,83.22908864579966,91.51701125824854,97.65704612378427,111.29670303057954,121.68612139430915,127.7511047618019,140.99873640761422,148.51651703656444,132.21727093542773,101.23843570358389,63.57203677911687,14.7910207409886,-31.30862875901238,-57.55941562854276,-73.14033756610169,-85.31659219729227,-86.99374899733068,-90.09996166294016,-110.78412822451943,-133.7567523805639,-142.68674024681926,-146.13188589147728,-147.78476538943616,-144.66069607703088,-148.18761665987515,-158.31324673592377,-152.32707493601606,-128.9992382265118,-110.32180289502018,-99.24558658928495,-91.24706528028437,-94.69698385070632,-102.21845573574402,-97.17091907843987,-89.25509774294004,-88.05821827680248,-80.17115862800533,-66.17736055127416,-58.89449106784959,-48.296390578829936,-26.29980262047031,-6.9639689999248855,8.777268169759747,28.26859569388718,35.94768269637888,25.342487144484934,18.599812507308037,22.1262198245407,24.284130231884607,29.010747397204472,34.9419371949825,26.30736426852509,13.215086847198942,16.274176334532243,25.038770454827656,29.290073548433877,39.3866648033631,50.24661209682782,52.37154898421527,59.14146348118016,71.62032191693724,72.80734170209475,69.29849154949979,72.19680964441825,69.27829397191381,62.40973337170029,71.04945389878435,90.40699652224792,108.3001059767247,131.06382786434153,152.4725541784036,156.16195047311408,154.59987407744873,163.84462864704852,172.05434599693194,175.24845308446564,184.5819834240465,191.12766286142607,186.67810644615196,186.66801020407576,191.7383821504939,186.98798587061063,180.66897395709776,181.10487836428166,173.9527296811633,160.88959927481113,158.1702739153534,158.53185482239638,156.8140365978632,170.62674729487165,196.32323057481491,210.37936514244177,212.9799154971085,207.93876070194955,184.90963689132064,157.7100649144909,150.35935389934144,149.38699441429674,136.0419301352399,120.8240591497597,107.10066003868876,89.15883564280091,81.65394194115895,85.5928263049807,74.19428217168571,47.848471593947735,29.831459678892912,17.50563338143989,5.522441967749752,5.093107782540528,6.0466737823122205,-7.570768001755894,-18.659528547718136,-14.871275726564742,-11.733947367403529,-11.81214702419499,-8.533068430166836,-16.388659400140813,-38.32899896413343,-50.41996196585337,-49.14727102477209,-49.99259288578558,-49.31896314835835,-45.16757355526423,-48.40499351879993,-46.92609232503723,-25.49872348608519,-5.38710702815586,-6.189014451364237,-17.422902792588665,-34.821792193804505,-60.50557535516055,-78.00174659472258,-82.14671999212922,-89.07364453503237,-92.67017996938536,-76.65603965855749,-57.155134910752224,-52.061521124108125,-51.515558164935605,-53.32786722273098,-67.24440045604331,-84.02632996095403,-95.14235242159987,-108.54597182161851,-113.39578229333948,-89.44121830995672,-53.98870839462239,-36.66549992913959,-37.008872765542975,-49.64881687370625,-75.86601896843334,-98.77075497617301,-105.88988684948089,-112.3831450315263,-122.77462775422575,-122.24813190928492,-115.55071697135543,-115.16315292401964,-111.64744007568953,-100.4655134794299,-94.3949113040732,-91.65922726004455,-84.09466798352898,-82.89981605049556,-91.70956240533755,-94.86932524597599,-93.34485321378541,-97.7637720884857,-97.73702526422016,-88.0614915287055,-85.20467383711795,-91.88711660394448,-98.53186864182015,-110.69421227165785,-126.24318582048264,-125.9527705488286,-113.40226019076263,-107.38127739392021,-103.16398867941058,-92.27557569171701,-80.9644549588235,-64.45416374172837,-35.17594812301839,-7.724942635332992,9.919284547406848,33.2226626863891,65.06139638229294,94.55875968807993,124.23014683160208,151.5766365574639,161.33856325955833,158.1881455124432,156.4617040376319,150.13899100065103,136.3792981569999,126.4168477580026,115.26117353999958,94.68155704385968,78.06278665865,69.46515467706249,55.83407510422348,42.97240317121777,41.08623833131108,38.18908772326631,31.43421064521116,31.187970608115684,26.855961226822828,12.48178166513711,9.95500107853955,22.540057298183097,29.808283838160342,29.59412956971417,23.045590642851028,0.7220719842538363,-22.97756308236624,-26.00319243420006,-21.57969143407535,-24.990321457844992,-24.752877015761143,-21.19940929463648,-24.998588794182258,-23.53831565505338,-9.308195249658997,5.50464506879262,27.005162187385395,62.66272351971651,87.20482726408812,86.09863064368407,78.77277640819779,73.95048521406133,70.10514331355657,79.63878145981741,95.92350836503418,92.45919808464438,75.54587573283736,66.77385424718278,57.245535673052906,39.987505734102356,27.558185272878056,11.683714013843215,-17.600985817830995,-35.853628640810925,-33.09461684389138,-33.27893924457806,-40.53413954956617,-47.55579143455952,-67.67395105546878,-95.12632098270997,-102.63650961539462,-97.82197225664265,-103.86176898366045,-114.06770954754083,-124.10424755545091,-143.35584046101002,-153.63386463930541,-134.28462998599633,-104.65378562642863,-80.21338006122618,-50.371295931644084,-24.897188032112496,-19.811802826608147,-18.49691925934283,-13.461475808242952,-22.227140506389418,-36.12736115429482,-35.4158207996616,-34.0415789509102,-42.46423884210679,-45.05351019783443,-44.99350347531085,-55.54610965980622,-61.60682657303166,-55.19903247727422,-53.40354131889757,-51.23615806011796,-33.13452234835856,-16.260276241276948,-16.531177551504108,-22.07934707163217,-29.42913408709442,-39.93880539240011,-34.234624284516556,-8.966783739201338,6.85508774209411,3.530662094132779,-3.2617795372670173,-13.827705710170504,-30.328130186198788,-36.93356442304538,-34.9053175680454,-39.62858382536023,-40.965849882504585,-29.913042548483457,-25.005224471934152,-28.98634018189053,-24.045507820334954,-14.18459215402731,-8.858193062645528,0.10081880929218512,6.627379882888237,-5.37609576959902,-24.007182125382542,-33.586838361692024,-42.78207648661827,-52.077331479516374,-49.82186577256518,-45.83265335251803,-50.81958925802115,-50.38253729780732,-39.941365828795384,-33.31534636345857,-27.69292480275275,-16.747923807482742,-12.314096809425386,-12.570044059903594,0.10790530677585153,19.870141946605855,33.02046159740995,47.72257498694552,66.18651814621727,76.8504491446758,85.25464740190758,98.69818999086101,105.35711647383297,107.18657964749248,121.10242950075832,139.6725175082542,148.06743671254512,150.95584556361052,145.94270272405623,126.47714359422164,111.762107924479,115.09162928811361,118.03718009169631,110.87876507463521,100.63812280590288,82.1846465043223,58.400206213432135,49.89611796045527,52.74038838889274,46.98110258819867,40.19821691049374,43.46987882440392,47.29502706618096,53.948253334390074,70.25731795932042,78.99512969654451,74.96199999050114,77.74782513562258,83.56660789055651,75.12252152412937,63.21168487427953,59.281552225228694,55.713232754609336,58.40783658468354,72.62423669362553,74.48262901865483,56.63241173191366,45.59116197718466,47.308686376422145,50.62946133524252,63.02605030418532,80.20860837965785,80.96236170993018,74.39298834774911,76.68946287856281,69.99536801158705,47.03718553891332,28.53570001649733,12.327860251834618,-13.421758484947588,-30.775067961533736,-31.224629734380464,-32.159496451650064,-29.51546145775804,-12.464082838304982,-1.8489487900001325,-7.841850730075066,-9.717968594648674,-5.996838209687288,-10.168269211109545,-14.392081636757423,-17.261275484990477,-33.42934491226076,-53.80083068788917,-64.20846183807954,-79.34283977770993,-101.92385873223247,-107.56765563770234,-93.7485964428181,-74.95889642897257,-49.97460941144012,-27.677839508358993,-28.510877621428424,-39.07722624279411,-34.27444158940294,-24.827951022420038,-24.61733022280474,-23.8333371657759,-25.07959191573878,-38.90653144187837,-50.59021503236533,-51.80318662215264,-62.529113404984116,-85.79211008200706,-105.46880670382716,-126.4067438936732,-150.19489217794288,-153.21971620903847,-133.16674497079944,-112.90767364521724,-95.62940718877577,-80.04115971937094,-81.32583615035051,-94.18666854496061,-96.40481039652605,-94.201141571827,-100.29192250570986,-101.48899263677707,-94.90339849237685,-96.2086655563643,-99.5905292351668,-92.80045648349258,-85.7319909979514,-79.27082568902588,-59.88682222023489,-36.808646002827544,-23.284349181798255,-7.342992245219753,14.046838880335372,25.90357630211375,31.720920768207435,40.449727677281786,42.668042313131664,40.2867814643231,48.17869954420401,59.732203849904295,67.58005306745454,85.44441666134534,110.43774258815641,123.0653476899404,127.24113426970261,130.72994497988557,123.56826767073392,110.87865664729809,106.66494964888115,99.89812270135826,84.15534357186348,77.44678485300271,79.6058707226826,74.45396463275563,68.84412518448868,68.95833990268149,62.36558510608946,54.88181262031594,58.90803521546385,59.139919300992254,49.120873561932555,48.08892781796598,54.549623529328564,52.30000382750723,45.987404855801124,36.838797701982074,18.573430880489603,12.828373897656018,35.5524668197005,58.19725060563452,59.750653578015715,52.74892218296175,42.32545171148587,31.665560094634863,37.32015988558375,48.77159219019063,37.348433823421416,15.503824987763466,8.601971171333595,4.202372323107534,-8.42538216625209,-22.770189481496548,-52.19164415913688,-96.33926684316346,-112.56556976915391,-84.93320495890984,