-190.25020960150422,-201.11827331381767,-195.9431595142187,-193.26391996084965,-205.55132885888753,-207.07572241340733,-201.7493803402946,-210.4391686957965,-211.33189841874193,-192.80063318051313,-183.7552449301283,-182.63675783299533,-166.78304286627684,-156.48458060533355,-166.66480772940486,-168.37895951926163,-157.49682920308243,-153.83880969002365,-141.41662122610646,-113.799188752614,-105.13534156945953,-115.73357570713225,-114.76963937332411,-109.34601221178727,-109.10748397231905,-93.37989686033127,-71.32530530184087,-70.0469400848537,-72.1908222005863,-62.48387437854535,-62.27272048789506,-65.53402182863331,-49.686014340623466,-36.39263312508956,-41.63678007037852,-40.97678571475039,-35.42539665941895,-42.02018926204467,-37.35724494348685,-12.300421798237027,-2.7662671884138264,-13.046580214627543,-18.178714563913456,-26.960241654773036,-43.169141481950994,-39.70141214457754,-25.370487936696165,-31.429101106830966,-43.163592445209716,-42.02858328486222,-44.174818682076555,-45.03967694015745,-26.1185624505017,-6.161491311167183,1.7940369198051076,18.01734019428193,37.41167695344399,38.364244619559585,37.98065259473239,50.6386641789925,55.53020863095562,53.22424063243702,59.15338504063384,53.71599301536646,30.244543926271923,22.739523226540488,36.10526625837785,47.7394180099333,63.09103295868303,77.31333206256056,55.38044459226954,4.80259132610453,-30.437590905073378,-42.98960862451365,-38.965955321067945,-8.681992715545867,22.858193763423,18.494318166930242,-2.715465662832976,-15.411971807241395,-31.81462435686862,-44.97835593943927,-36.81868681824727,-28.397532431031244,-31.74575638494302,-23.79695348130264,-8.27382242285414,-4.405718406443546,5.7241330507015284,30.04104137482091,38.93148680272446,31.681198183856395,30.803824869728853,24.330014688927655,7.656910836243098,11.011042174120167,33.06327683683079,48.93716895072266,69.85070732871232,100.96960324509892,114.51441373433968,113.33470117267167,120.7750246450261,124.81573417392937,119.91686139147286,130.41829926939508,148.9239810667511,150.4170390027145,148.84479768901605,153.35741950496953,143.14091043302935,126.6161349007717,124.5799067095828,117.49487572749733,97.81621665901247,94.89591003392351,106.24786166207114,108.60260815067596,114.27864516251051,127.13143469017955,122.0647433558662,109.06721928697824,114.26491366115587,120.99354294636521,115.97272538674139,116.36853245741277,112.57728216034882,85.73740925545583,60.13808389535336,51.406811838413354,39.3896995043656,30.794489256326944,42.70770208877883,49.25726454145085,36.47850566480958,28.44885024752208,21.0864089677157,-1.6290505666675443,-15.49478075653504,-11.159840489825289,-16.721735951224545,-28.307601988281213,-26.611989736261872,-32.938505873607625,-55.744389548756246,-66.14598460163033,-67.01400052264489,-77.91482816686542,-80.16124581360394,-68.02884001358697,-70.2846153248046,-81.91189894355159,-80.10498799160752,-79.89912097116736,-86.248727283408,-73.7776659383143,-52.76841842258584,-51.644184165364095,-56.32537850303646,-53.39498922083793,-58.16311611371836,-60.17347407552654,-43.189047625558516,-36.02835862141052,-52.709497085270144,-63.295365123049095,-65.79247076103432,-76.33603403063225,-75.89473498990236,-61.87946494976167,-64.27812775107763,-73.40693806415331,-64.47985636521005,-58.99311810950166,-68.17414165785313,-64.53521502817604,-50.15137290078473,-43.40201479877219,-26.500978761992915,0.7559284906316872,2.415585134631448,-16.952386565747215,-26.31307818063687,-31.794180165424557,-36.648334889523305,-19.614133342722074,5.631184255432414,10.885219865637406,11.032473402225605,15.747613317873453,4.770044845470387,-8.231443044724623,3.117270068580214,17.08663575583363,16.658832765939913,18.734524691904756,15.042149848202339,-4.634657016851785,-6.997274615610067,16.36018366184202,27.152902202131877,19.39214381558518,13.765162021995783,5.890800171455492,1.4445820430787863,22.737292427893134,47.77197880134723,42.99050004058908,29.66538460890301,30.774245875280414,31.971707170982366,34.81234094767245,47.35052716996731,46.94429711752866,31.979776959857467,32.13456150819047,39.69331851281283,31.736335659588143,27.50985594455659,38.56082964381977,44.39300592067778,50.17219861284702,66.45485191142791,68.44604578273825,55.41895910649977,60.6945461774023,79.31789524669894,90.6646727061294,110.79556333022938,141.3800352813968,154.37771497313497,155.39266144310076,161.85189466327654,153.78735780428994,126.84163836723792,110.16721447492688,99.99036316764625,77.67488752943328,61.66322321801918,56.91418022618693,36.6115849231102,8.235735591300026,-4.662764810988468,-17.053106129569382,-36.24747953693713,-41.416030333831024,-41.46303170064431,-54.19064613586029,-58.91277473418182,-51.688930869648644,-63.34075278965156,-88.6190719020133,-102.50358457280227,-115.84672014579704,-131.29152433051027,-129.68763666063373,-127.3895431062109,-142.59300702896894,-146.20389162032313,-127.4354104068184,-116.47466872434639,-115.16883257381049,-110.56883034721812,-119.329414484849,-138.40933687387522,-138.9069194899609,-132.86135451223402,-143.04784046345918,-148.1454811469123,-138.2172259007775,-134.99312710963304,-131.67945547706626,-115.23548031129025,-108.91328574657018,-115.92481330596986,-107.9398750820655,-92.52486794538382,-89.49910935508031,-79.62487833015261,-58.718820717899035,-53.33831644135949,-55.342376780081736,-47.4234287726955,-50.80466259813238,-66.09009233423612,-62.19734354310012,-47.42321227104967,-43.8600022980643,-34.36573833502333,-14.740565185401724,-9.058234956324688,-8.512105896215042,2.645309923047197,0.2855422693271734,-20.438532430374067,-29.915197985154446,-33.564738050878596,-50.223037662501035,-61.761387777346044,-63.87140600789953,-78.3644265546427,-91.8771803478683,-84.65394279577771,-79.61217527420197,-84.21814635968624,-73.49877892271299,-56.06094748068885,-51.73665292155165,-42.680887196798494,-25.401215127046896,-22.932580300596328,-22.640898534880083,-4.8854277036702225,6.420596837303428,0.6407137872046151,0.0057127204757154715,-1.9340398083245884,-17.90019421473736,-23.681955582619267,-16.559116855868737,-26.298753724328822,-44.97262660519266,-50.909639916542055,-58.9345287368469,-67.73965710778623,-49.88953200418055,-16.542376560048517,10.99586633132159,50.82390839034,104.98823711134033,144.87219371063566,177.45399993851916,223.52533154239933,267.120031665442,305.45290681334546,359.88820925974255,412.3163140695936,436.8949236938399,454.23015804514824,473.4831790902116,473.4049934685497,464.3944633474094,461.23776841463325,439.0432504846632,393.6866932039439,348.032377590942,286.1321183158597,192.18627769495896,101.4438931015334,38.520466700652804,-2.930073473236611,-10.291336658009689,17.2046465365352,35.97573020205406,31.417347951150465,34.484971255425535,46.054083359986556,51.21778004484501,63.155286312422774,72.14381437418508,47.38389323881624,9.418619860844593,-7.8390640795003454,-18.2006655111066,-29.904756091050952,-29.46483382457648,-35.15616826119209,-61.225243423677654,-78.32527728864723,-79.40228602240957,-87.66724310440749,-90.14805518955235,-69.70469321498861,-48.0496850931302,-27.990277473984275,6.369581528189208,31.098861944599715,28.935401128816622,26.97743024390907,27.169212491146904,4.991669584340703,-30.301067468688668,-74.80349430894032,-156.71979524340534,-262.425055910821,-345.74770600374467,-408.0647795900691,-461.38091837860475,-487.0797555493908,-495.1199848414888,-508.94321631727894,-503.3956355592899,-463.04331135500684,-419.6968782106731,-376.8133858387821,-312.47188735212274,-244.20155013857794,-189.14518426082844,-132.37257761489144,-84.07806846800102,-49.614317835141335,-103.25372791770002,-141.8447292505736,-178.5268787947059,-196.50631439803126,-166.83049988664845,-113.0147959040246,-64.32863698085903,-15.938605897033746,18.48787385255957,18.035063915992957,9.444970398689533,14.655828216151285,8.79688239354908,-10.067652365927634,-16.658211241556916,-24.757700989689358,-47.34892318805162,-57.16315368570495,-54.49732163501671,-62.94935915587675,-64.63749809740014,-48.91880544039602,-47.87531112334669,-63.579534085806,-72.77219631859664,-89.53996685640706,-118.25700735672925,-123.13892991228008,-103.06327125031729,-86.04698498173295,-63.982789477312366,-35.27718685594958,-29.72738585584278,-36.89808515219836,-24.94051215167876,-11.443886184006056,-12.043528989789694,-4.234051338465624,4.413745611553701,-8.538037810876535,-18.149426624036742,-11.321701779879064,-15.317927737005817,-20.635269287271015,-3.37766785552832,11.054921943849537,12.217502983344751,27.806019193969906,45.34650778943771,42.473620814681546,49.32451234096227,76.61289958724889,93.68409613901973,108.91636751062163,137.8549607896077,148.36678450531758,137.474843813341,142.7024331098154,155.054025177729,154.5117912038977,167.06391313377372,192.11973114970945,196.13872280929735,194.72196038158978,209.50487204426645,211.0847931128729,195.600108558776,194.61127213246408,193.2612792796056,172.1807572843304,162.65661368989657,166.41039303514037,148.7301812726866,125.6575965941565,119.33311409379027,99.26845322872732,62.848545328492186,44.266379082726225,28.84884119696695,-3.945313093554809,-23.488811936558307,-28.724978829207807,-56.40589229808577,-91.28225974310413,-107.15409432839822,-130.0409845606205,-161.24172850716909,-165.94395727918592,-161.412559379794,-175.21825280005433,-179.7185061240698,-169.3583185257796,-177.0983348365854,-189.61583493102958,-183.44005089993826,-186.5746216577419,-205.4426083716234,-205.20467946944348,-190.54815621577913,-177.06206542966098,-135.1237027408258,-67.67191357084856,-29.209733449194058,-24.961692989945817,-26.261309723405773,-39.64210813881585,-54.31047680605505,-37.20283248560091,-14.449689657945044,-23.502018102473297,-35.43746774400936,-30.145598995839293,-35.66581535003633,-49.109688373604975,-50.41694638843888,-59.10966520276071,-75.09752997185869,-66.72244587403014,-51.619359327297225,-61.28550643046685,-71.81445159162871,-68.55805745495057,-71.22842114385553,-63.47218710025825,-22.9093145265699,24.570251052691326,67.68635583453575,122.17323128542856,162.8650711901858,161.46863093059622,144.29808103460508,129.5502073178056,100.90581235141839,70.84173769322915,59.25811727678234,41.10546258179083,5.942839237841422,-14.320196097731854,-15.845640592468381,-17.117507311074576,-7.8186059937490615,10.8340058494128,8.40802140286597,-11.673137229130667,-26.586632512129096,-52.38506340180002,-100.23285757267385,-144.40121655480226,-179.51131777960677,-216.2993044844894,-235.7852689680442,-231.65875539795266,-231.33670912999767,-232.52287431558366,-214.65082458940122,-196.96999271246867,-193.94245630507862,-181.88743020850603,-159.50248276244977,-144.33327026321817,-122.42465545152115,-91.24412273670958,-81.46681473802496,-90.46545316388256,-93.17429037647784,-99.31584530860381,-112.45489730502028,-108.09810326508112,-93.30759197987018,-90.3330181607154,-86.5462374376717,-78.48821122120097,-82.75997623250879,-78.79644388786195,-44.41499902210403,-9.451554893187812,4.11348461776262,9.400504019518639,3.1495799261781112,-11.370313638712924,2.6680822513881877,44.4048803190808,71.6454303524969,82.5004661422337,94.48872734789312,95.87941729886055,94.02841088266987,114.70442833769854,141.5163026793817,155.3205512095567,174.1195716154993,193.4162440438442,187.79851607661362,171.39011238494723,161.91803880689196,143.62826027380228,119.82843757829082,110.05920112241871,100.3394887091975,84.09235449391872,88.59031278234401,110.74617127206803,120.9505162580583,122.62123080828167,121.79871862100454,101.14033132769998,74.15432327318533,71.82785426528496,79.2298970108864,74.32424754290491,68.36055660127103,55.925152185464185,21.844538689755367,-7.55725394109233,-11.417514940872664,-11.665249053750072,-13.368684133865116,-0.8703625864566531,11.008114299302388,10.125997544173448,16.146810294791177,27.20858913445757,26.939581033568025,37.795867223422626,75.4654624984015,109.64487670129499,124.5515400415457,129.03925555043838,113.05809914747385,81.99302986929038,74.49378334314757,91.29796347822607,97.12330426363592,94.39758938849761,100.57872287716512,103.98298201418974,107.01377145736382,124.39655665351998,129.23005091491103,99.06520834174486,64.51927574111808,43.95242411007891,23.012944922250718,10.331328136244931,14.021690455477222,8.097354081459018,-10.608842155637108,-17.1019632395822,-20.47717004553882,-36.48759186345701,-44.78400301404825,-40.784225537019836,-43.974842289921995,-42.24236032040053,-21.660091391767914,-6.606095123167646,-6.427727784536323,-5.471294603165548,-15.190272918440163,-44.524227728164696,-62.6540435154386,-55.15550773189312,-38.8793223463951,-12.554177347902247,20.742583238690237,28.13681952504877,7.5813791557292465,-5.486723284020141,-5.330035449620327,-2.116608345264158,14.704989525994415,33.66782386060325,25.732800348648553,4.974242097863918,-3.914753880060405,-10.472265186262295,-12.186339971472105,6.108817666570326,20.584755119140745,8.875370648695867,-5.172993872033275,-5.570153511867515,-2.2662526727938483,10.959700816986773,29.811345536788643,18.817035009096628,-20.773277904176805,-46.94240029060984,-47.83935204985436,-31.493956564952512,3.5306215271752794,33.23296206651044,26.923053616303505,4.410584300244102,-5.426495646003486,-12.979679971520882,-22.931688859799245,-24.86018468898652,-31.75098564611553,-44.43686909377247,-33.07837855581338,-4.463955793989795,5.712503552471652,1.7359735336745883,-1.0897428270789429,-12.593720541379211,-22.737862223347122,-10.822317128021023,3.0952183142351855,0.7297217985052318,2.08462745533052,7.9537687843641915,-2.343372493142863,-14.698563700782083,-12.951810624621299,-16.048182405212238,-25.277290113218108,-21.677199171288922,-19.016651129752336,-30.35479707984221,-34.500411485015036,-31.508924228056024,-43.226060130080576,-56.496730520350724,-54.985925023670575,-55.88296881417405,-59.210730218463866,-46.5922497980943,-33.61475293332593,-36.42520185359296,-34.821200382342084,-24.897083508353823,-26.144683658018828,-28.49917088605553,-20.188726981391717,-24.077043215355463,-42.566361480595795,-50.07853023023671,-53.37321741277424,-66.14547762378868,-70.14163102450081,-63.485133470699495,-62.78558738852304,-51.83483441516741,-16.112446216647463,16.941348044035102,31.901803551879297,40.971173551173536,33.90032750992611,1.6452021050652217,-30.3073774538846,-52.054281445781484,-70.32450033439618,-59.992427400558356,-8.914591854700845,41.222800889773545,60.287820200075174,57.01420390768116,35.60927950792823,8.366916563492037,7.590038248289717,25.284718420837155,22.171633119635246,4.035934740445397,-5.51565162245332,-17.836259104629566,-35.58986876060954,-41.042077790172335,-42.68190474904119,-48.18954004857745,-36.20147263692426,-12.563974440579889,-8.763116500232039,-17.312598563556968,-18.435470825862012,-22.29085871062686,-27.156238547641365,-17.77380844211354,-9.948085589188043,-16.197995950237235,-15.961044816250059,-8.93186320270786,-12.74169183840967,-10.232095075279453,12.188096262260878,29.879406960001525,37.26592673829866,50.707202786135426,58.48440925167966,55.774843202577955,68.23120515625399,89.63593169791791,92.14413488698361,88.51495315612951,93.63928904628112,89.87866420992717,77.90363577354876,72.94305592479745,59.524749689165375,29.61693027810173,8.69779211627905,-1.7659702551781957,-20.862743934619772,-32.56987797366138,-22.098843624199425,-12.673596909046154,-10.93176256123406,-2.9250789250748337,-4.941736345557202,-27.546702727692367,-40.62864016948332,-35.131072010350536,-31.843186692588446,-22.909083927189762,-1.6976967589562069,2.122574268085689,-15.06781891373329,-24.213252465961425,-26.01348573865393,-28.260613936425244,-14.661329562438086,5.8169807417846755,4.1162183509492225,-9.421049960425607,-13.81928161157499,-18.99486378602757,-23.631467490645292,-12.074184927103737,-2.4792899910652877,-12.769019249953738,-21.234381570443283,-18.531570234566935,-19.323344947012274,-14.235333610769743,4.194831158457479,9.87289917515848,-1.8960829806709398,-5.238961518913664,-2.610605223760379,-5.336184420905447,2.703454930806594,17.49658190704267,13.097025288610848,1.2956007982062605,3.6606067053981453,6.175810798316382,5.107367802250774,16.428181299033497,24.292944539062677,12.636216341140695,6.720376017796853,14.79658448435032,15.006869883136511,13.820745322645706,21.40461059501023,16.307289511029396,-1.0396155878191662,-5.5812813305258775,-6.355635472074631,-16.886874414209185,-15.887735900761594,-0.3071999222176274,6.916098043532672,11.305228928881949,21.761698772131208,18.268297856908916,3.99427380509249,6.042731873044703,15.983198296044451,18.221027250310755,28.555292868948847,45.378317789585324,48.39007690471335,50.45343558555322,64.37196261582017,69.31994439742641,64.04781259700904,69.54540703255525,76.37124119939153,72.6617006166471,76.51936121344016,87.47693476319509,84.96373036647113,79.5235479100125,84.08710272170899,79.47036542670008,63.43948578154737,56.3775762732522,50.38326289417225,34.67755218648651,27.92554840906379,29.786640962713506,19.228241616167203,7.249144418766016,7.492706795695898,1.0635130976095408,-13.04616638220856,-14.279420685091281,-13.552629047250957,-23.73162533640916,-25.455731376756447,-19.93168801665339,-30.112706109459022,-44.306440481414725,-47.3196268685384,-56.80484781666003,-70.05555534896548,-63.12845965096902,-50.41997289704568,-52.08874606602387,-53.32440154820263,-54.66917199615289,-70.74968726105975,-80.43595891633024,-68.64346550271544,-60.609344038791235,-63.62012454445592,-60.46576107057721,-59.23419191225085,-67.29650249494789,-65.15551302853783,-56.176291189153815,-61.8794116608892,-69.10851671331021,-63.97139564345446,-65.3755583186494,-74.89409739779241,-74.97652539224876,-74.12186165584983,-76.73422333049665,-60.57651542209044,-29.831599503575582,-11.538111426358359,-1.4619529289063347,8.900843863396938,2.9857936834113348,-12.993940620628702,-15.75831321400143,-16.84410216052096,-25.42339230884735,-18.27853492243772,2.689459161675864,11.926191488146998,13.706205042523598,12.829877085790368,-9.075760833994416,-41.19124458760067,-55.367027369924685,-63.660470557373586,-79.7088591165874,-83.03263719431848,-72.34393436301437,-66.75261322496091,-57.41070716484702,-40.031803702763824,-39.20305198395383,-50.8018575836678,-47.10940561248279,-37.59394981519361,-37.55629023248846,-30.35024296961428,-17.084989820403592,-16.03469707743158,-11.020258943924023,10.223566329315048,20.5563791057562,12.135165224072335,4.0313843272676415,-9.393317933328419,-30.793139104018664,-32.961263088195,-16.415943770330344,-9.567761332092836,-7.127955900539698,4.337435398438457,8.842693945698091,6.4578502427568605,14.264947404346854,18.147878062844054,6.786980950167962,3.8141124215758633,12.965180231916587,14.909765422603357,19.064856442761386,33.415248495957655,35.85415571245369,26.822749688951347,27.166579815798094,26.03986902254116,12.868838046417448,7.247233023118264,7.498297348928618,-2.9496537010037702,-5.226451888795392,11.057590313693794,17.820840260988444,9.340972177367455,2.621646005853601,-9.134025807219512,-24.945960731188443,-20.20370337200441,-2.9112977941989566,-0.26412004490683594,-1.2857519100403518,6.257150112433674,4.962281732711364,-1.3922510118924132,5.956508119321185,15.298629068772032,20.82589814960585,43.04103622931615,74.17271263294617,87.28501868900142,91.48586697669845,100.42401047725473,98.96375900067225,87.37342083755254,79.40159042467427,61.57319606736112,31.818326299037363,23.292438463387835,42.121928557617615,63.24533247573188,84.6850026605604,104.842787323473,99.82035396332373,74.20417934966535,53.07502558715591,28.913953480606963,-3.4242004221704523,-17.688616376213037,-12.190393277680098,-9.732861435911511,-3.823672539970559,12.218515575886993,16.354770712582695,10.541675384220916,17.417017434003185,24.55114385490388,18.57744899442632,20.33700660695077,29.84635206376127,25.354206707321175,19.13686113398311,24.85970740614015,23.109374330410454,14.5888016193127,21.167200841400067,31.88865069959465,33.45664544312727,42.661903118306405,54.4229858979986,45.49925416994252,32.17520642660465,34.65268238582955,35.36845041745828,28.37002549554162,25.474774840114165,13.325460788622427,-10.751946080334509,-15.653688631513852,-0.40073688848367794,6.44883038561841,8.287363953500218,15.696369513852964,13.806559024191422,7.266378544167146,13.810552520501597,15.434738269928404,0.5952432764039051,-3.908215569356975,6.363745038714553,9.62133283415825,8.7892206824595,4.874932577473658,-21.33408039176829,-55.794964717310876,-67.15849973581177,-67.31675505034646,-74.76445052827742,-78.54749383402248,-81.81218354948734,-93.98288632839184,-93.77968683279994,-77.21527478310554,-75.76984152039081,-90.28796635029985,-97.59396765244996,-103.79636430318945,-110.60425156284938,-96.92703766165873,-73.68183206382179,-65.65214263885292,-58.561417181295184,-42.437993902751614,-36.6295636248592,-35.90673734443557,-22.22498320788776,-12.253438346222827,-15.601628104873884,-10.480080766200505,-0.06725294255251191,-4.118272860456674,-7.740355888291643,2.2089062268175885,9.399998966015133,17.327148596895018,40.64847776593257,58.17055418101551,55.8921897138075,56.56442115273767,60.65047427059073,48.14456459926694,32.8516250657307,29.446003607224057,22.39435478575365,15.838426279762086,27.832543682433368,40.271350938210624,38.745930176174234,45.02236322397508,59.8505802337463,61.40620866079678,59.147707175926115,63.82767033780206,56.85935897285951,41.64049263553417,40.75082684659245,42.254150202053665,33.0009214525184,32.584781713778895,40.49384105532431,34.93611288109273,27.412245023886484,32.25693124004947,31.34108323914559,24.21139654844577,30.786868859840165,40.22336138725862,40.816641158084565,52.102199626379395,72.45055077917552,76.34183431053822,69.26770150156558,64.49348574669891,53.00649773999242,44.80192315668026,59.054031241459185,74.98769313700392,70.1852050665694,58.750014016576515,46.836208842195106,27.161902363468577,15.642819833586053,17.897038045705607,10.187946239647252,-1.8703736316931465,9.662522986845604,33.68206365060796,49.46325088228386,62.84631680510064,64.83508908383865,41.00645369391543,17.019003449812736,11.287885937276538,1.4893349156504412,-14.22646637671615,-15.869286117228462,-15.455332052981863,-24.25824228658084,-26.068513647683652,-27.47554752296323,-44.95548445250017,-56.06363753286724,-45.363860463317586,-35.536194633524076,-30.587041115113376,-18.646051927402894,-17.310502516021828,-31.780013560898055,-33.86003902152353,-24.22988140166496,-24.753590700930012,-26.320923856609927,-23.999334043568336,-38.062166370866365,-58.64451061291854,-58.10082347839593,-46.701780074217716,-36.98538353900333,-15.343822373481386,8.333312001852313,10.31012699459743,3.930975778691622,3.6428955798111895,-3.871687708704833,-12.149939263974137,-3.468953475739413,5.586859038413473,2.8251438153554815,5.334954545572694,6.723495800831874,-13.651236986311346,-38.10122285949416,-47.409974314306126,-53.23444347049213,-51.133537353420614,-28.68625861508722,-11.654943365612718,-17.997626655224753,-24.137149860633265,-24.470480427603363,-34.8833571930587,-42.29006318011764,-37.76125331875597,-44.490003083776955,-61.58410536160871,-65.79792643516981,-66.4199472092924,-74.90242296911683,-73.9413491695719,-66.1219376979247,-70.00815556726187,-70.79411345366472,-56.97119685045969,-51.71886772637778,-57.2760312821088,-53.454709068730196,-49.43545279506991,-54.35426587918013,-50.014720283484266,-40.41575405565443,-43.87585157528929,-41.53181450872518,-19.214883919411694,-4.089141452199593,-6.116778061302059,-9.49101480414143,-20.59109268471092,-39.36189573060135,-38.99527991003555,-24.644464311954874,-25.359928013441735,-33.003469587893164,-33.40170636168994,-40.804346319256034,-50.26536195203957,-41.03897619869953,-27.145592419097326,-22.12993873608608,-8.775127645178673,7.2719211816,4.350125246761357,-2.499598263342974,-0.21540606996051181,-6.489267166126954,-16.995530321948486,-13.166518556855994,-10.821130350703996,-20.344259793706087,-19.49383518271838,-9.247015119475588,-8.585172578316483,-4.842900078086692,9.36886599532793,11.936815803350232,7.145308118677884,16.79458062782996,26.57869492269255,23.360491033266303,24.386635508372283,25.738157957985624,10.06722706132791,-4.950864911641174,-5.292160409896619,-8.368142168787085,-11.535480549930762,1.4643035903720873,13.186402179511482,11.540686709027526,17.523917141865365,29.64100570761648,26.467377001464214,18.85487372792476,19.0504271632264,10.898902847915005,-2.0966181732444116,-1.9842527942510135,-6.389584200297353,-28.68112570529647,-42.07657347187588,-37.24458448954042,-30.321883490111965,-15.162050748297677,7.354535740994507,8.405740612483832,-9.423777392959085,-17.424279423717678,-20.029802297356902,-25.61710562430337,-17.303668655236837,-2.4884336496005304,-4.066298190733751,-7.93071973744954,-1.3099124020324964,-4.276804207587393,-14.857209640289408,-11.235586674287534,-5.519206751171255,-10.421567027004244,-7.150891338647747,2.884728008722042,0.8819678505023951,3.1344195044104306,23.53637450932562,37.452287895232544,38.560062940507464,43.637492605658366,40.47985741390297,21.185515649204937,12.214635919016619,18.29394776853775,22.586218433587074,35.50811687306023,59.709754887507366,65.63331137663418,50.967045936909585,40.53718012143436,31.611886674457548,18.517031858331155,17.79612905494465,22.587442578871595,13.154512850653939,7.4335940261526465,20.93884588917372,31.54444721670071,33.70526379285435,41.75172117078636,42.46997933382992,30.242372357359052,31.9970224016306,48.05707311289163,56.371729466804155,65.36282514494938,79.29107295042033,73.87834761640434,52.89100361721161,42.80347781917189,39.36026794906382,36.70628265240986,50.64371426840501,69.23029804970881,65.23671165856749,50.95487398333118,42.14106555870659,26.390109996205233,10.552741767102255,11.731900645797968,10.74317826497666,-5.111164934576461,-12.656875999191518,-9.431227380511078,-12.228723652054908,-8.567721974230173,7.221907965087663,9.519301023763783,0.014242862823099056,2.0321920864166634,5.217491073474639,-0.5858811748699195,3.067600235810898,11.318251745409793,3.476237978943601,-5.364927824159024,-1.8447733558097308,-5.639629127874474,-17.714520708262075,-22.116561230762894,-31.516841139097895,-50.26645206688312,-50.2085887172648,-30.185102171341924,-13.806231596136223,4.571159291854874,28.972000660118212,36.55415189998589,30.561878590805485,31.804673445700477,27.40187563442885,10.637993576622268,9.040091692436722,25.392235311237528,39.31911168324156,58.35900170002634,84.29997276705386,89.55318520256034,75.11700299709614,64.9453772500456,50.86182084778814,26.228399755344157,13.412541434635221,9.386808821750055,-7.70028630025112,-25.13183941015391,-31.29256024447755,-44.647576294221615,-61.71291398387639,-63.2774831389594,-62.81557305083898,-67.86439379768494,-55.03896074013589,-28.91018370633768,-17.627890880948947,-17.581881165706694,-20.62451150313438,-36.91675714917156,-49.750779110046444,-36.321202998549765,-21.604890107205208,-28.27077502316333,-34.25689161631199,-26.952308726366397,-14.773711849383801,9.082601131983314,36.42953280809099,34.29298083003155,9.494644495251304,-2.398664478953104,-3.1957999326326605,-4.991451618045935,2.976684526277505,11.773578117227718,1.8423396533191068,-10.708983712973016,-12.949527383148514,-20.631669209597028,-26.410302932077528,-10.99850190887792,7.319416077515835,13.003844580665902,21.896796190642913,30.21867831866582,21.505707661377087,12.575272459947485,14.765462697651184,8.854140500965638,-2.0166647883777435,-0.5704296158744975,-2.674079307511467,-17.107893968313444,-20.161613906837808,-12.681481994861198,-16.17424444527668,-21.597925986027654,-20.476562719038654,-29.12539064710161,-39.08065788423872,-28.801766806347516,-16.020320365336943,-17.71433691335463,-16.199546696637725,-11.167825371690792,-19.21348806111015,-26.382124033052143,-22.307825773699832,-26.144209722257198,-32.94905154409573,-21.248581549371686,-7.6853455645961395,-9.339301623698208,-8.743113300696756,-5.301866136217971,-13.079424176394319,-13.797753008154302,2.8187465835517225,10.622514989257967,6.390004892710483,9.108840460957405,7.442672340413998,-6.217448314686557,-8.2591086353947,-0.33722422466092716,-3.869204495648671,-5.757475614519951,4.6455235596765565,5.532577379562593,-3.4331777866959357,-4.787332694894305,-10.562237629583718,-26.199256385068928,-28.021187769167746,-18.559538363479433,-18.658475545403547,-17.996464643474575,-11.427703929199902,-21.050346738061524,-41.404948072923666,-49.226771676106914,-53.52899141247847,-60.01942848703098,-51.76183836135536,-41.84049589975365,-53.13436129467785,-64.04348514983394,-53.53892445496106,-34.65977676992665,-9.188394858885925,25.449581151249163,42.272677134859286,32.39949063112003,27.719911382482643,36.758992952016186,41.321240420885935,46.01638729835228,51.007190533651254,35.95320054980726,13.644576937225196,13.394819611039116,24.538702505595126,33.40151943513594,52.387172791216344,71.18980508530429,67.55645035228736,55.97353307229789,47.52242962696418,24.690278707737818,-2.9435778069897545,-9.301396470576247,-6.242502318090915,-6.293825002443033,5.367135275548819,19.46557434141998,14.005764565237007,5.5302202949988075,6.777774387429098,-2.9563992192678983,-20.260398382860476,-23.119995062247497,-24.277654937325813,-34.41483055125545,-34.42635814514537,-29.249570905999267,-38.99365397146941,-46.7512701954529,-39.37389833430199,-39.10059404382653,-46.85977053501647,-43.221702535901464,-39.06877031557754,-42.105137476581355,-31.727827900050105,-14.089810754267996,-14.793565882980959,-23.024692611929268,-24.75862946629667,-32.851317379377505,-39.022260254184516,-23.441741430766236,-2.4206157864594835,10.09913296059474,27.786762335759676,42.772463974464465,36.345666543866116,26.45403265244219,29.281288365140654,29.73049666242109,30.36565280605019,44.508092333567326,51.38466421371582,41.13564186311469,40.80480231564275,50.885935114519214,50.632687456073896,51.806507574951226,60.69580274419517,54.87243534593913,40.05154216788574,38.230624199544174,36.93253342061616,27.35269391229648,25.7050344588644,22.753496169098963,0.053080677085555195,-21.88123522830324,-26.28202671036134,-28.85682885402984,-30.860039552840245,-25.294521883253964,-28.382526721951297,-38.25541386022507,-28.14007592349158,-6.558209170964165,-2.8599267898787826,-12.860673486164577,-26.792453671493636,-50.75543749079049,-67.25027638444006,-57.24545718561566,-43.62973104018472,-41.48487336753942,-33.660701812038596,-26.156099423974084,-35.67713393530557,-43.62450353376999,-38.50014773834252,-37.49217420987546,-35.92583732952615,-20.44958095953638,-9.031096713961245,-9.39381852509784,-1.3046845661026287,10.81676365377496,9.009536094658026,7.260096610207627,13.736079876685956,10.059605708681776,2.119515879932125,6.354601815469642,7.3989429698403075,0.7899817776657923,8.1110438186883,21.173030503886693,19.80047067642269,20.594126741928783,34.1050205945147,42.38199284857615,49.783366585768036,66.80525562666367,68.99840718736061,48.05949277959384,32.88440422655963,27.77202638170839,18.386858880409747,17.106847181721125,26.954597517898158,26.2813546195967,23.785457584218925,40.15806289285431,55.04914106898953,52.075079636587375,49.23831586693023,45.35785954876872,27.831544153569187,17.510069292225886,24.29279596979071,24.245801111663816,19.585602008635792,28.45402431826127,32.35202504442025,18.762826013179343,11.09337829885326,11.469919642548986,4.671198355189095,6.2891119961645,21.867454755890492,23.526301542945724,12.95522381302667,14.660189802038765,17.97229246341452,11.43156831639747,12.467315452790075,16.708792670874264,7.2006726132013545,2.4631198274535246,13.460953839171271,17.91806154903398,18.02723266980202,32.1413084407156,44.590281180064345,43.699086991853434,47.47175445606089,52.98032128547658,45.08460907244505,39.930142284199114,43.292533780772466,31.18123690058222,11.035272793815187,10.65581490455808,20.58951784397447,28.033125665810168,44.09292097158105,57.879124027233786,51.64170671955243,46.53219299600748,56.36255675155663,60.22116320499134,57.54352124173253,62.165777460823264,58.97983002581081,42.70117271666011,36.24272376258714,37.46480334292924,31.39397016716051,32.160609982603084,42.43527737223066,38.80284267805325,25.756682779710204,20.04889205160582,7.474125247796943,-14.832129232328297,-24.415413391974365,-27.88847971375628,-40.43184350091003,-44.18372755763513,-36.906896863088164,-43.08592535687257,-55.35090194895693,-57.01606927853439,-66.7339569496291,-89.49008082980752,-101.48272916608094,-105.75690437055573,-112.85419238656011,-103.45963744654034,-79.77781748564817,-74.70632923991577,-86.42191651289261,-93.9104791976006,-104.92544716446089,-117.66053660543879,-110.81272979778225,-97.69797175580499,-99.41458462494094,-97.20171850413541,-83.54385120064914,-79.67790478427182,-78.3369531826103,-64.2153694686519,-57.184997511415915,-62.64080494105417,-56.78490324241294,-45.69945296524652,-46.70538187435304,-43.652324230919675,-32.96938701093811,-37.51941473663647,-47.8724273304617,-40.17176972082271,-26.379486510453383,-14.697121594775979,9.666065925414243,33.12865139398624,31.894562129509858,21.046501882336898,12.420798790857138,-8.396503476141952,-29.47773436672533,-26.841335264287956,-13.126123043064341,2.111330408908485,33.07987965699075,63.91304930188755,64.8589891414203,47.44666996377121,28.40199399969176,2.702133227414534,-13.7283262201884,-3.1958716878503366,9.178633463997823,5.41602033055473,4.815815707801034,7.584296453824729,-2.5652053561997654,-13.383164871876657,-20.375751259021694,-44.719402956251066,-76.90609020925855,-91.20881358476083,-98.7473981705082,-108.5319827496334,-102.172699785719,-86.80915426642662,-84.7215854866337,-83.32694084228649,-73.85017438312403,-76.92971211799103,-88.65422862323787,-89.05720150561001,-91.1735500562485,-102.30037443168382,-99.7245432455274,-86.23425200252852,-82.02376031843848,-75.24647734400098,-58.89184449516191,-53.22911031853448,-52.5836318115577,-36.95107208000229,-20.535408872502675,-11.779366361566709,9.287552102939191,36.246372684078665,47.89181409817357,57.170730254276506,71.0321924700776,69.07815054565177,59.53490953580879,64.03084859305625,66.62479399691564,58.609343304683456,61.894784556312295,71.87247717639316,69.73775031305142,69.5356481428035,77.95417807082518,75.95212743500241,71.39015539067293,82.57251456494119,92.1633671410191,90.0421224005788,93.55485951995463,96.16864997142528,83.45845302346228,73.79733466368316,73.97688312351218,65.28561501750823,55.57854624283996,58.26627685988389,52.53131357315839,32.674688799892294,22.973988398434905,21.364699615892356,14.963558387391497,18.518001340074065,29.70719723743,21.44690679482669,2.390917229410464,-4.533049289248316,-11.361419901443087,-21.913348109478214,-17.418899070805473,-9.28807367385213,-15.282549992334898,-17.02746041626835,-9.710402090222363,-14.589080891735499,-21.362022457532355,-11.962421100443215,-5.836998636613552,-10.944351307542743,-8.411256411235632,-4.800827624809209,-9.48749844913127,0.7961802530789646,27.44964485791388,39.113570611018545,35.419802314211246,33.11557147779022,23.49756298139981,11.954802136127812,23.33334458668328,45.28688195853454,53.66049809818426,60.130563541426646,68.90602156704902,64.56134416645965,62.85198581948609,81.26352444233859,95.09209784495155,91.582275341029,87.32707590456153,75.88248951338139,51.32509912470752,41.572477077834044,51.25657220473974,54.00834038679949,54.30253899539754,65.17353883204392,67.40217945750373,57.742544563777145,60.08504267016764,69.62892387256912,70.27902414216742,75.93727001490731,88.94825297641106,87.27507449064207,79.04823499458291,84.22660464403023,86.40368292694,75.03781168409597,67.82300185625844,60.27702049114408,39.60200748285948,25.76414063858547,26.367027291921946,17.917019669254888,2.699003523776342,-3.5669750443599026,-18.234771840532222,-48.22341361441553,-68.01680401097971,-77.54040527100433,-92.85705172441646,-99.58135260907214,-93.33972397427097,-98.6711940784438,-110.37286055862873,-105.97026097180898,-99.74183176957362,-104.1975937391837,-102.30137757360085,-98.64483049262816,-109.15444847837728,-114.4284380225917,-103.50008629507744,-99.57468598787476,-102.47220422419319,-95.57190937162203,-93.53719167955822,-101.75545093316057,-95.130870201054,-78.43913021115219,-77.0754957234674,-82.5874111076121,-85.42018009278614,-95.33762644208753,-92.25699037774255,-50.88452280912924,2.263304155361455,39.11476508851328,69.24501518255123,90.2376469235841,92.26131914378173,95.08075398234841,102.43869230554847,86.8697667323363,54.88635583478565,36.37258815155083,27.937703086146254,24.08232372198268,38.97682724450397,59.28714969109501,61.01303787855022,57.90364987391153,59.56089322656122,49.075346385851184,34.91386679811948,33.566747187717304,26.92684802350457,9.467404322604846,3.9547615480207874,7.083649501125621,5.128398858592226,10.144958857884717,18.61195573237675,7.119605548389548,-12.993450554592727,-19.001954205303274,-23.438485641610434,-33.22716016128527,-33.580385661546636,-35.55212811567237,-52.428411369567264,-60.20983179387753,-50.03156375095142,-44.565537209781915,-41.79891384114248,-32.72828443627635,-38.45586078519276,-58.214866409478546,-59.32132762454809,-42.084184895545064,-24.122420015461003,2.013255524739261,27.38992968778256,25.75442394973461,13.614389891240608,18.94947455980652,25.788153801417067,19.917774066548795,13.570149114993685,1.1351046102950715,-19.330374627460067,-14.1322474172611,23.167608047384956,54.58563249995492,67.8598699127144,70.62998416898672,50.60319693100956,17.11476477165125,5.714129647197806,14.562991533306443,23.146596672780404,39.21670648457491,57.09391652311614,49.10359274706257,25.433547987180454,12.471061404284644,1.859353088736111,-9.213944481749149,-1.9680373257613426,11.657445433995928,9.499048052193865,5.885397987351263,6.27976838334923,-10.331678786437356,-34.059652936356635,-41.946725236392325,-47.34921908091071,-57.16122178541094,-52.10597418499928,-40.32620285116894,-41.050752099403084,-38.70126304311978,-26.733967486080658,-27.154798538506373,-34.90689364563511,-31.833206677059565,-33.60564478996622,-47.64628010452588,-52.528595508872186,-53.048710221599045,-66.97252764951048,-77.20384661198312,-73.67634621187582,-76.12274677650284,-80.24134994407947,-69.65645494027511,-60.98384090586916,-61.29724855557262,-48.43595373328515,-27.08010207194261,-17.146160315405215,-7.275195154249659,7.428075841225279,8.680823556364277,7.186778459811874,23.754602214448514,41.36577276757274,48.95925449587819,63.03351052356277,75.57514476404762,69.61514521442463,63.1800726551216,64.7433790619759,53.90811848510744,36.817814913743874,32.47102926995731,26.69979088276325,13.391455361675929,13.847517673851723,22.681474881944617,20.939366555460623,21.608053580646555,29.961146379039267,27.207383739055523,22.232073569090524,31.885173567923456,37.76462248058058,32.106369558201926,33.63581830713574,35.83912762191529,26.530973245083494,25.097738272455608,35.36321752496494,35.96302075189051,34.15047198189621,43.32301275691749,44.49418226127764,34.0198566793659,33.86120405969506,37.36960474523979,29.882998945062667,27.137901133756476,30.97272542226295,21.83972207450116,11.322080396221939,16.899889150236227,20.246561877934113,14.22633025673338,17.22889295527206,22.584329492706082,18.473766012437515,22.392276611602725,34.01235764916256,30.01693172433422,19.598200332750153,19.871512108561678,15.450769396936646,3.007869378401017,0.5388486534787476,-0.8206129992991125,-11.945853833197331,-12.001346276897007,0.6064681700776742,0.6740909799860493,-6.092349914461144,-4.491149601170965,-9.108165622753596,-19.06797903674813,-12.39937563996976,-0.5347679526538123,-2.3991067478617407,-2.930991790848439,0.23945617973698718,-13.093681402807029,-30.695377425581835,-31.532503961624258,-30.49565907869905,-33.86821940123606,-26.44568684769284,-21.541512798380154,-35.30140936630783,-45.558373124284365,-42.27738270180438,-45.95178753392186,-53.32777570467206,-50.943626519459,-55.5232883070919,-70.06884928951024,-69.76922279820997,-60.68557737931944,-63.05354251147977,-62.54301211510629,-52.707976322476945,-53.8316754676056,-59.00972018100292,-51.00877341134815,-47.74406290608778,-57.054208413834296,-56.49697136914013,-49.46846352873795,-52.456052285811644,-50.40327329951938,-39.27659359662046,-42.332798107018924,-53.0492298152722,-51.56316322846727,-51.95892065225142,-59.42433499157499,-53.47857557345728,-42.71136477825297,-45.46876190128721,-44.64614937489344,-33.76065300933452,-33.24213901357453,-35.882515276817486,-26.26394885530189,-22.900302091002033,-30.71051819067774,-26.982456021816013,-18.281064611689445,-20.61665203857219,-15.887891519257403,0.4534389176597582,5.805908499843014,6.7979083085580045,17.621054431365632,19.134285724326002,8.55766774378391,10.207069939680489,18.17681835825939,17.417801611793347,24.29344833175769,40.96202456186236,45.76906901469368,47.5355559408842,63.07747583987738,75.31798373068922,78.98691945454631,92.27559676973405,104.19336279769496,98.731953920939,95.40330858257826,100.00195979002785,92.41271651402398,80.43546725731366,78.06983927235656,68.39857621020656,51.1081124050939,49.2759629271211,54.14179054635315,48.721828033142586,47.74866379266662,53.476603479539165,48.26116403663009,43.751421350365426,53.35851170877298,57.02383860708274,52.246970163370776,59.32295054078939,66.1710800559515,56.87169102681882,49.56531784810517,47.86146514466047,38.41327794907054,37.568737918152195,53.63978740282823,58.08720323602114,45.95928756330605,39.353059421424284,32.64765747453382,16.06770369468316,4.5319322095704475,-6.091035238279178,-33.39351983813898,-59.26124398308952,-66.86403008396483,-76.99240076670272,-95.65917291849445,-105.31911354972684,-111.05046951938326,-117.36583586116026,-105.29594202055482,-82.26882302509308,-76.47910923334899,-77.83297764983527,-65.84713260086687,-50.659635065537714,-34.10416265737969,-7.97819334004636,6.350138453511182,-1.3383471243108458,0.5004299768519047,19.952773699033695,31.746342687139993,38.3910126667878,50.993244982221455,54.58741798867239,52.06732492582497,61.20556923475934,62.74003900401931,41.905631352982034,31.14995905467994,45.10974989625896,59.325631620502776,68.96121359914221,77.84675452966425,69.71597394709967,51.68890099455486,48.462757814758056,44.367054184837386,18.950169115296685,-3.0309700218884617,-4.322958791678027,0.40994629830363666,11.579038316017355,28.370796091460388,22.82678025381162,-4.109999530486363,-18.601304504731097,-22.727170212452886,-35.574084342351085,-43.39164877348238,-41.29043267420611,-47.84969188678315,-53.72977510485206,-45.48402085196529,-46.725328657228175,-64.56274705997178,-73.02682336599148,-73.94843350521197,-82.26845488051148,-82.82337201776595,-72.93120501196096,-73.89523227114834,-77.80497103254984,-69.92599113385012,-70.55048544552031,-86.28856230487737,-93.37516675845336,-93.8698822349259,-101.84529391524624,-102.68532222734626,-93.87645168368545,-94.77375792984918,-93.85281743890822,-73.89784237771595,-57.16062435399594,-55.06624515879253,-48.60183965424777,-43.13961361996414,-50.98322482004392,-50.79962883997834,-35.22318629654745,-23.967937878136535,-9.390881304502873,21.29245187671541,43.67927131701592,45.877853451103164,49.83787522241253,57.45322493938942,58.71324739411844,69.253660087264,89.96127033813765,94.71134986833079,87.96815336148562,90.63088771435953,93.02998327581791,91.57149953256865,102.7482269579238,113.81900710409876,105.9371816342896,97.64175773721922,96.82806837810281,85.07577016834429,70.97957363808791,68.57052841533144,59.65990964261886,42.114669645116926,35.59985026362925,27.262585757049415,0.7185604348876442,-22.27682566054764,-30.869824805578148,-38.57181149744127,-35.534830791647856,-13.347577489325095,0.5167198823458143,-3.9786039795210573,-6.793277967716797,-11.920964040715543,-25.517843128750965,-22.407368940055882,-0.1024507503014993,14.849842801233951,25.201722191634182,38.645122676185224,33.41075738727443,11.174606655677506,2.4765704317692263,9.766110486567486,27.7296246564105,70.65987536603522,121.59916208252054,139.836758866103,129.34075241370823,113.22401387202743,86.56776314356019,54.852697012985104,37.59059308325886,22.999890801376452,2.6896582821567554,3.5870337103958443,26.192769130728472,36.37825747480647,31.191245471445153,22.867042805021203,-0.8918245012516923,-33.018640813505236,-43.53571421483067,-39.75356524056085,-39.99343214292905,-28.383976279642546,-5.239733781927703,2.5918636435615476,2.1346302429454216,11.890171587533251,16.31939155184848,10.075368178663027,9.372870475905632,0.9497940082771406,-31.021510455049395,-63.295176284217334,-83.95091097453806,-107.85587173513684,-124.95353469698352,-121.29675952869621,-117.64653332752877,-121.26492921544003,-112.89233842299984,-101.86538303086482,-105.52040820054306,-106.24550199953569,-98.71618676564098,-104.53711662283118,-115.45810128760877,-112.63756627545831,-111.63475259204708,-116.4881255086097,-105.80035644996809,-89.69301963762365,-87.29220800404045,-80.62639455723414,-63.59266340885944,-58.63141134528672,-60.91590752609075,-56.484844504503045,-60.75931832763353,-71.39919293459627,-60.79242536063125,-34.50373495649729,-11.387349278761715,19.25669819121112,57.94659686704047,83.90802843676282,103.34176888481055,127.57342609136764,135.44000813297305,122.24349683622984,112.07769743624566,101.24699671181455,77.26262016179041,59.18002394577775,52.189307953856996,37.664019404520594,26.57560274392766,33.033858916843165,32.5087661770862,15.082535441190075,0.8654274784024705,-14.03296934849793,-35.90331371938895,-38.22206504016219,-15.616990706187394,2.7776081220704,11.91662143403554,17.73118141659327,3.9691355525446967,-21.560074893898847,-26.60168980746146,-16.566882430355754,-10.1156258856266,4.565790540672257,27.85014982523672,39.56227983323271,45.66566214868004,55.499156798289434,51.12116904097034,37.35192103931483,44.51697307770809,65.59759029508811,77.70754572317844,87.98295971717619,95.48564300646035,86.02192928295368,78.81310719989898,91.0508335211471,97.66490707125848,89.22211633239816,87.33605168412072,87.36711680525883,76.49087252373805,68.72044216597996,59.84592434123248,29.57838087561579,-0.7572766650355813,-3.5518089247795515,5.663856415699255,16.16093661256033,37.331203203157045,54.160948204029765,55.11736346668768,63.90526725347586,83.94429381733825,89.71590311692033,85.05486094994106,82.6138576925628,64.5500773208916,28.400624036226088,-3.9182827208709687,-40.356325894050286,-93.38373577206337,-136.35870038305103,-155.4074605433531,-168.98815641291122,-174.1622860864253,-164.99038678438657,-167.898431203134,-185.8003684925829,-186.55497446114111,-170.80030130861712,-158.55647173787955,-142.0495752656566,-123.75503079047793,-124.95786725701888,-132.02227747616854,-122.37707674795348,-111.8065105785129,-109.13157037800428,-98.82505873065223,-90.70948988259502,-98.60279279274533,-100.29960115092666,-86.4086569673003,-75.19639474506063,-60.57278666429939,-34.512452781661096,-20.189185197774243,-16.94711093971267,3.123446471862337,31.928428457330522,49.21767896326504,61.83266216297059,62.656060777335,37.403788083065734,16.938153767515693,32.126207552835865,62.455050029751966,90.62177279349538,122.71120477547662,142.4811910105566,140.5154228641182,143.99785566196175,154.23593612507523,142.7033371429738,116.27367127593081,92.52195393999256,59.652130056087955,22.627227003686357,5.817108300098589,0.6530480707910398,-6.173504353564281,0.36097427862886766,14.284199287189788,10.419578455577188,-0.3561942660079209,-1.1638578042672667,-4.848048008573779,-9.633612568965795,-0.2560368638414081,7.617681508751219,3.682136897129234,11.712495706405038,33.51789011068104,45.81588421243638,51.33244405123569,55.37999523332225,41.93383990595177,19.103229531461135,12.822119455172889,15.861230268418861,15.660675941652155,25.65926268410315,40.97378501746911,39.67109612084996,34.57618242349515,44.72588538557767,57.44987328512799,70.22093283975397,92.24680823629816,102.01000444332861,85.56855001741835,70.11521538980354,67.44334513682543,62.88546058857402,63.302123658167524,73.8719849938621,71.47536847766894,55.39596425864238,48.62341371125213,42.523049251613756,21.8593861004743,2.169364421517135,-13.60818030295583,-39.00126827224058,-56.33271795902777,-49.682798146294324,-44.53558093161499,-53.21700001433989,-57.334185326908056,-60.06835085578702,-68.98679713488303,-63.83861524051022,-46.12246193592462,-43.11902562708018,-47.118374115433404,-40.163695729366694,-39.52443570656962,-50.90209089936975,-54.15773834049989,-55.9643529855782,-69.04643218039813,-73.25560408565174,-64.77682685055916,-67.9003921671682,-76.25063664062816,-72.33345728865883,-71.85466570815007,-78.81173627281963,-72.09415754698028,-59.91086325816116,-58.68201484046125,-49.83760968401365,-26.971234419456493,-11.242937154469464,2.037832071500106,24.411591642921554,37.90323237597867,42.15438711341415,59.016944075664995,76.5736032778304,76.55546121247329,74.56083791664373,73.7574907458536,58.99853063341699,45.063452624912884,46.72308307941702,44.57839410832735,35.750818516362195,37.36584692307679,35.02464828137036,16.69831877887188,6.7167898346162875,8.205418648588072,0.10662817762413379,-7.446519191438494,-4.33490576926919,-10.95045336771552,-23.936381337664958,-22.164369838288707,-20.67491301482708,-30.782727841586453,-29.542354539634893,-18.35623587919264,-20.894687341682136,-27.47361011396142,-25.58093649734061,-31.48439412265893,-41.70661234213715,-37.59524677670046,-35.24770271554903,-45.962136756464304,-44.59383086015406,-28.982467486169362,-21.784652938052268,-17.590302346488148,-10.737428046546768,-18.751192832663442,-33.32241705556721,-30.839652946757013,-24.357826913940357,-27.88361707260624,-24.15485692228609,-13.306349537076334,-12.365251292977316,-9.486075809201031,2.291005025918812,-1.367084277861311,-19.588137671962,-27.202115467224615,-28.529235785522882,-27.754427562188376,-2.940369142170539,38.91303043958763,67.01610960351364,86.82247375358794,109.72857216443495,116.48622528058203,106.89112156157293,99.896286505013,81.41609332724508,39.83408383283121,5.120267178198437,-6.281028843387342,-7.973559700464629,5.071755553816079,36.78477340673272,59.13777668315635,63.469722135825805,68.81260542596397,66.51446980744655,43.58777214399777,21.52093369567794,9.091235858949275,-8.728040436479816,-23.16328105326397,-25.618428094655666,-38.21347334713944,-61.83073786595148,-70.8703782340297,-71.03330629600026,-76.65572816668248,-71.63454112399052,-55.97773397537098,-52.81995150341739,-53.986719918102835,-45.30090744487814,-45.804842507335785,-58.9760206230468,-63.58654806894111,-67.17944902327696,-81.35681534514467,-84.1610316531231,-71.75629942409459,-68.63724020772808,-70.00397609327243,-62.617017894577444,-63.25699051460401,-71.58866926283318,-64.89357562795003,-53.309944004414746,-50.38474568504763,-32.56730879004506,6.019224198280366,39.20022652006098,64.58176453357551,86.68720004195295,84.5046715183562,61.263654879034405,47.79522888196294,40.797403320329884,28.192231039413837,30.444016312224036,49.13211568532921,59.74213647172381,67.23866031608969,80.2881373260162,79.78207802957635,69.22785209143157,70.58925366538688,69.2588453228835,50.391113761084966,36.208622816131836,32.39384671168661,23.09276727955928,18.9255528310257,25.45390178678427,18.88149546592015,2.7816313043958254,0.7977159696239411,-0.3140154690825547,-13.577584905346232,-19.4292844044296,-19.007312584385666,-29.512919108175666,-35.91315565787675,-29.363155325793088,-32.436286669122396,-42.82921630544243,-39.02376063163653,-32.31089030071522,-33.59880361862658,-26.312758529615973,-16.06378794553371,-22.269235980266537,-28.121023525717952,-18.80070967837539,-12.708838507476083,-10.79519058561417,0.23549525882684907,3.1779805835952004,-9.875558849159859,-12.293013578061544,-1.2896386353373073,5.568192539771973,18.821902691129107,40.51877796932296,42.59184054011241,25.994379074158243,14.473573541242697,2.1818487237347943,-13.86456898791533,-12.359747577348873,-0.26403329931902597,-1.889343476078198,-6.158554021320073,-1.4136076926639647,-4.369011422321388,-10.010945777240792,2.373232315640071,19.140171730512552,28.532103384858825,49.68238124466327,79.0185019958178,92.72774286142378,98.51467805655433,104.79216089626226,91.9879798297593,65.6438396108571,54.501240631466345,51.77561291214661,43.274463319250955,44.77791153659585,54.0864673158878,49.73146648707338,43.673029766431895,48.41017509908957,40.799771009383875,17.28105173128882,0.47787009163373595,-15.891786461999914,-40.571175916397415,-51.34953730446933,-46.891780392598406,-49.96642255279829,-52.75303153268473,-44.296491280027524,-45.14863204145867,-57.23358437644393,-59.68742504156663,-62.134937634327756,-77.22781593620888,-84.23342493100847,-79.10749308741656,-81.83969148165534,-84.13718592300883,-75.75027211174651,-78.55755428947319,-94.0599134721755,-98.4808069965342,-99.33033734231932,-108.46216328229345,-105.31022660340089,-88.21281284211513,-78.82767573607684,-67.25123567706521,-41.83982440265162,-25.217079800209106,-20.79587387127652,-7.711165658609911,5.242570394550561,7.177830710073682,17.27229298119509,33.1309317799555,29.80001781767009,15.924890408668379,7.876018124267592,-3.6710891262648353,-9.165688397451683,13.184956921095523,42.88292321254662,53.58474275017977,56.08527822564085,54.635564181996855,42.81053223760272,42.37896732029056,63.52198044833322,77.48708288163917,77.31165069210141,81.33087999981673,80.43828711588398,66.34010553427572,58.61200332307372,55.361115292728456,39.76907555124038,28.149779698681627,30.905978123514732,26.108931909165612,16.50081114246853,21.15486655045745,24.026335203958553,15.709285751399667,17.97799399357067,26.52989550475534,22.69298805286678,22.16826228721575,32.468120225179256,31.252239101047934,22.797302602319593,24.190747399154443,16.665631983387925,-8.25631128522091,-23.345295057388974,-24.97143493941317,-28.153267491469652,-22.050730240741704,-6.6275591433602505,-6.992730222858258,-17.277244119064477,-15.62545372038123,-14.572041011265197,-21.25846803946429,-13.49759270587818,6.244409512084534,19.278710919888955,34.43557764902784,49.68539465115524,39.235042490576795,11.966887549793139,-4.467905676401559,-16.917712343012088,-31.211527939967272,-29.906384441531607,-21.10253051938946,-23.033833214406478,-17.945525308911026,1.1909473297375879,6.280081880960741,-3.3209443758336596,-4.982406546644677,-3.389710137804458,1.6031926496537496,29.62633178949168,63.440346688956524,69.34362184095437,59.48678681409548,54.50299984141213,46.351663025169415,39.875441602240905,47.2461071823954,48.75239297288481,34.406431907907745,30.844671921775134,41.90933766168763,44.59123732377935,43.84714698327779,49.31460034830692,44.324174711891466,30.354093978107393,25.181332477891942,13.57778414461044,-17.450746815175172,-41.35230246496018,-48.1716491670488,-55.80411183136361,-57.145898718667816,-45.04632730606917,-44.00981660348768,-56.42532602886453,-59.67185167476467,-62.900491833323706,-77.38941997280162,-81.31122659697746,-74.79704951804895,-82.19302191063987,-93.17890618663425,-92.59480284899877,-98.3055474281562,-110.16909460270065,-107.68786034039223,-103.35287273542303,-110.03529803220633,-106.08373212816487,-90.71807174267484,-88.16615416463651,-90.4372458272162,-84.49897386897013,-87.63521309393863,-96.87068047632675,-87.962167574809,-71.24689807696743,-61.75194190618093,-43.53477718370544,-20.12911816770719,-15.203825068070678,-16.931512064576264,-7.228424632753919,-0.2001869454393428,4.336204243767239,24.248068962434502,43.53916113741829,43.697285092382394,42.31048932428432,43.24539689542289,30.607116719610822,17.96357987786709,19.44216281744009,18.990247820979892,18.662457992024024,36.08204985925764,54.971075852720105,59.846089971515795,68.39860350925584,82.14828785985208,86.22858634132865,91.94323715154883,103.18540429823919,97.95535927085902,82.78693172846812,81.08964034162413,80.52962322374884,69.40454260279019,64.92962545633517,64.38795035497132,52.2620676899479,43.1668231160256,42.51744163186774,28.4799806462076,9.335188457251256,9.961767108221514,18.17028999101777,21.314487949803663,32.10580569322984,41.03430077182907,30.346289363999677,19.504719142940047,21.238328604369404,17.059513585346043,10.606720728204259,16.97730545860166,18.17243772535786,4.743363218224528,-1.7207349782803447,-1.9507315245892303,-9.899214761613196,-7.8043690193114434,12.619722642300713,25.789837496268994,27.641508374427065,31.328756966690165,25.156191324202105,9.916808313863044,12.819105677275832,27.088788917710943,23.05586494379991,6.492976894045359,-7.9316907448658664,-24.73263196687387,-31.087431652464353,-13.291229167985072,2.8019640190215944,3.4878906023450122,14.379997704821315,36.58340094629386,49.05955917076496,59.54145616979005,72.90124625175318,72.39716543910774,68.01954655058633,77.00725966774299,76.3024236425567,52.95907168515768,35.50813755052184,32.859871070099715,29.720054109576786,33.10534979653889,43.3572757868408,35.15539639994938,14.058058483419298,10.592047963503317,19.898775868959234,25.392413550510213,32.852643452502875,31.259632572871546,1.378330689795579,-32.24499532966628,-42.17332503762523,-43.38048422681914,-43.525952707351436,-32.98122695448174,-28.868687717967635,-42.668801273647325,-51.55204042136823,-54.512672522771936,-72.58860760952179,-92.04495162280307,-96.30328641943873,-103.63439377254056,-115.45883990207088,-113.12221520311638,-110.16654665990684,-119.34504420197726,-119.22884742603172,-109.30753894495331,-110.7544456082846,-111.9327346018599,-101.30812507332456,-100.22676747720176,-109.08886535653714,-106.43817895568229,-101.04046875407934,-101.18695491571631,-85.65017661800812,-57.70208921844232,-42.9318838463323,-33.16368081661581,-17.770535777541163,-15.083545592186837,-19.95522057164324,-8.460776368570318,7.776705546621315,15.792852876659646,31.988418569391595,49.489385878300425,44.069661606124136,30.143966523912624,24.73265238369958,12.0335438888992,-4.9286572441633965,-5.863083455175014,-2.3930553281559273,-3.513011369414757,9.914060280121143,32.56512227150809,43.170036767657656,53.47433649912996,70.93453610529305,75.31278588237652,68.89674540836322,67.2293978580805,61.07960150050695,53.079349040954796,62.94529955154661,74.70602365740537,64.24246867962808,47.28320314338188,35.1444686178841,16.3226947434189,1.4101236705371636,0.8715494172271012,-7.573654543422563,-25.889346019079785,-27.316443179626187,-17.12171624976966,-13.051842184491756,-2.104826386043687,16.270245558994166,17.904229394458728,8.904038029570042,7.328805333391702,-0.4801015949376022,-16.46807540327701,-18.401590547297527,-14.093102985423233,-19.4073925253574,-17.145057363660023,-4.391544768014908,-3.5800176743199654,-7.582386702159418,-0.45021175662046,0.4092174762173153,-10.947421485248244,-12.928212541872437,-8.958883429195836,-9.476233152608025,6.572280302950232,37.326650710263586,43.99038461036566,23.01988755612083,-1.8814958215481257,-31.237607602618375,-56.63011365710257,-51.79676177925532,-28.325898123409686,-11.801223238977048,9.674073735494243,42.42793714044013,64.41528755707526,76.3596030054389,91.04255065331384,92.0883997613134,74.1037375408776,60.44720056907562,50.97674805222864,35.737552567428935,36.660290886326656,60.48204197066181,75.80342289960305,73.70051758850792,68.05806513223305,52.84426260644767,32.92568524024822,33.74171503994676,42.67803961336801,27.43824399460357,-0.8889453315026712,-21.59848132459043,-40.57497107722921,-50.578157170543975,-40.0906516189693,-33.3047549929546,-44.56905133662593,-50.73208316488148,-49.59226029800929,-58.05251121289659,-62.71791729351084,-55.49279804128676,-58.380064165547246,-68.85378121923166,-67.87977211909792,-69.76627944405601,-83.40947832714687,-86.63600321399525,-81.40517672775538,-86.23423934447433,-85.69222113342781,-68.50492425236183,-54.47601675655474,-41.665137580435804,-15.566195230571518,3.8494882388520066,6.01342228737793,15.416662022525518,32.8498772116458,40.14491331608234,46.174003007033534,51.30094255998327,34.303021942489174,8.382218785373382,0.5453651027664298,-0.5467723610807865,-2.5146228775851993,11.594468148385594,31.68089412611031,38.152983676151486,45.892206980503346,60.689304171654065,63.915646830490466,64.7563404790408,78.61359115642564,84.34766018484133,73.96436269325477,70.70418659598617,72.28166097726215,64.50764276503948,61.238506934187534,64.05480403579938,54.76727982953245,46.97030469391293,58.68354341896733,67.93143300653347,62.44564037053079,58.187836166782816,48.64635419172355,25.84126775212185,14.681894866088957,18.53965562546989,10.627483058674676,-5.071155813140961,-15.192356903847738,-37.014372128734486,-70.48041183062585,-90.83740093309187,-105.15622978697783,-126.65893885250767,-134.52834021696867,-124.87182352100947,-120.64800411981355,-116.4441026294889,-101.69152504087825,-96.95139789701115,-104.77413668125719,-103.49918734302679,-100.56302016505067,-106.01215342853538,-97.12231056424446,-71.38706082134325,-55.79998950152167,-49.76666597084222,-43.748998473026205,-53.987853895389726,-76.83762220733306,-84.57219279480887,-81.07796551012683,-79.39417899782276,-62.14801757966853,-27.882385187222475,-2.062802775534838,18.444817975896676,44.99537924006034,56.66928874947718,50.26256460000034,53.36659552760802,64.84454824224446,71.3592237471935,85.41871613603644,99.42670932310511,82.86783055308562,46.703694907026,22.11922313462094,7.789655454557651,5.45464991214428,31.941458153138793,67.79883137839529,83.72729811209251,92.03811244300893,102.52788338956967,101.25707740534763,98.01428740899318,105.92732574250141,103.020318914384,83.01789865296963,73.26695752043315,75.97182539007929,76.43748128491505,84.16210112499078,97.09139418217802,92.24046787571383,77.82638861137583,71.78131474401486,57.08018642974931,26.216463014563463,0.5615512906322033,-21.377730147775516,-50.79618255845753,-68.02423327567594,-65.86690937732497,-67.09671577625244,-69.53385627752833,-59.87679027203665,-57.47311555920744,-69.70292654652174,-71.84719115813076,-64.3763057941069,-63.149763507944186,-54.66318009089095,-35.55602828922638,-27.978625204086246,-24.615547452046588,-6.584378811661024,8.98340753136961,11.258702839144737,17.304945752259993,22.215392399862978,12.541182731913384,7.931239622717595,17.353861481391682,18.718828321475634,13.790809245267294,17.663800577164906,16.43910021306568,7.3951209808776,12.91706598050049,25.34818269704405,24.029694541815367,22.37441953734555,27.799203526483563,24.837232066535513,23.244132680568235,35.68199887534886,40.028677957307906,29.386927412085704,23.796221310982247,15.862165249659352,-9.015495267015346,-31.58426298752117,-43.42442215560434,-60.875835405722725,-69.44965734797289,-49.05667238831827,-26.258418547590907,-18.75860701765862,-8.543365724682275,-0.6663462208252353,-4.438150898439547,6.789626670973185,33.65194789396886,38.087047673287415,18.837308527692933,-3.491820260664335,-33.84815370718069,-61.63523682573505,-61.29753553536183,-50.494503090623496,-54.359710382135866,-55.152194344976365,-42.005602938086206,-28.08870098474574,-5.520599108476794,26.82756172223052,35.25642430684651,13.922893705847798,-6.619260204190448,-21.249487412391662,-31.669996216599777,-15.9108560813109,19.64427076721221,38.591634578578685,38.509340482802216,37.07628223537442,35.29174234052362,47.392547801122305,89.63901462870272,130.84001212710626,136.31474414772921,121.46836532379268,104.27151081671349,78.69412602694668,53.38905365619917,36.61419942895848,12.319131190566424,-12.122074207861996,-6.360058088466903,19.605650743943134,37.068054319178984,48.46304556261128,49.94915296239519,19.87283597996886,-28.642625655268823,-68.7412194264458,-107.12952636191508,-144.8142096081085,-162.03576474329702,-167.5115439614044,-177.48442771076554,-174.6331039579496,-156.36355839823068,-149.9928445372906,-151.88682218901977,-142.22610107020807,-134.46469405580942,-135.01117286633126,-125.05297622888519,-113.05228531969571,-115.1347954708305,-110.93248371509436,-93.64895409028222,-88.41585704530999,-92.12411332247964,-87.75756200043685,-88.05296254565874,-92.41580430236353,-76.94345763903664,-52.475870076520714,-44.190210393767195,-43.53900870815943,-45.49843304393227,-60.83043353249797,-71.54826504411726,-57.66755759912718,-36.40784700911904,-15.919749475663995,18.486197224434882,53.793797180875465,67.90486636827066,74.94149360823964,88.17195732390897,99.66211971917666,118.81569558927357,149.2285358389395,157.86609349606664,134.9540334595966,110.15763218392783,90.20474174683109,70.38401282167317,70.06388215909153,90.1437063475021,108.10877694221438,128.00947054603319,154.8513347051195,160.89522089397823,139.47258815168962,117.27116083171984,97.40793546825373,75.19673341852808,70.79000188593255,82.80808692998392,86.18134082587677,86.28891128190688,92.24045158586262,84.21748810082741,63.10219781418413,51.12706884056455,39.54377349464623,17.34744437025603,3.8234987349686387,0.46034808692750384,-10.23752834671236,-15.794004596545719,-4.409191286254391,3.1900125703353766,3.9034549178689293,15.44634080900823,25.707867661699005,21.9235890276409,25.806127331398983,41.96084764655099,49.552918402228045,53.03359153271729,58.02398941212131,43.746781785769066,15.65075927066941,2.8799848053631316,-2.47761160494213,-15.45066407739818,-15.154603979498082,6.391908395441767,31.649834060785988,63.08627202161051,97.54952799750825,101.88297086136276,75.28816658269437,53.770456689972576,41.71874605824004,28.726354097346835,30.349525890427195,45.933034584150214,51.731083232216584,51.592674879062926,56.81106064759939,54.85759326277742,51.23789123065636,68.93207762551722,91.87066781864786,89.30843946963556,70.3786852762038,50.87988721770291,28.862564236634647,18.27163151333674,26.52748639715546,26.404204549517402,11.877737842898798,8.209582637609767,9.486414228089755,-3.478616615058672,-16.629185464864705,-24.15419159873083,-42.08698304328383,-58.42535115056561,-57.863592938046764,-62.22650203598054,-79.42496379197912,-89.69168232179575,-102.86248177915505,-135.39692545958914,-163.2816428127349,-172.77398497387458,-182.87777277411897,-190.79807205585823,-185.7519493975571,-187.17775660647757,-197.56547408109435,-191.11040331044376,-175.10023040647917,-170.7157408002879,-163.10058158307712,-146.57892282532603,-143.00605612901364,-145.83505952097138,-138.7687980877877,-139.52794451842288,-151.40898147516043,-148.36749074063977,-135.4251026084567,-130.99222100687564,-119.92653867493206,-98.82466161526318,-91.07320769797255,-90.2118194285396,-80.11094586425217,-77.31262894476514,-82.69014619664007,-71.12587436639731,-51.45359372431167,-45.34602720199322,-43.17627491098115,-46.73022307037013,-73.10210350644698,-98.92745262634384,-93.56743760685993,-71.33748992790342,-45.24185660398909,-7.436414946398095,25.576425338712546,40.24545388792873,63.712078464187734,104.92773579740442,135.29410310824895,150.7627305715451,163.34446144928268,161.66145913390017,149.5613062804366,151.69098628083876,158.7291059294363,153.4301856316721,154.91755000853337,168.7369023837308,171.87112555187568,167.52543588191236,165.80364901652172,150.1194702499127,124.34790700211016,112.17363576723133,102.27380621730273,80.32728049363577,65.82047382953269,60.022130389554206,42.86601912178685,26.159876740848084,24.070677322008365,19.38245235689482,10.507135401545831,12.435949076171203,11.315996060235722,-3.9171732083566777,-13.190723948969568,-15.971417085295077,-30.465562283466667,-40.09385531557527,-25.43889075533962,-6.385098893370255,5.737762109067462,21.229421527150187,29.5148462044047,27.68498429456926,44.34657110809453,77.07937828672488,91.6649573005438,92.01534352263414,98.48356564752183,100.82608627494432,95.89552855788853,92.69412447630353,72.76498573213613,30.6511779305212,4.154463036801486,9.528061741985494,29.06300290085685,61.449035656393086,101.64270769180581,122.32972836774867,124.7967277618188,131.58355629304543,131.63222068664976,109.61013463458468,81.02679893616494,50.57289324331299,12.67810998817912,-6.8225782575142055,10.246774614939621,38.08247930991906,60.58618379821567,86.76599297557964,105.56972797693328,106.1676692810631,106.2982149667664,103.88415072986581,75.33810283601619,34.20157524917546,4.912841246958106,-24.66415313197298,-62.03480174993689,-94.91112001836214,-133.40508445028993,-184.19990624532178,-217.91560215405195,-226.6618593587803,-237.8544389347981,-250.37002459622857,-248.7985994587687,-247.44409534625314,-249.18980467121764,-236.00610109479305,-220.64578882766932,-220.07249318373923,-214.33689544328266,-197.75533402109093,-192.4648237527865,-192.12000784302873,-182.4169651873091,-181.20362032567616,-190.736778190292,-187.8360861667424,-178.70592372021784,-176.6687595776803,-165.20379869010475,-145.32986053797828,-139.6619355730234,-135.01417953877498,-111.5059645268511,-88.73283161971358,-76.41103800291565,-60.10112819451291,-50.06317881834957,-54.31813334626387,-48.56428677230656,-33.304237750967275,-38.00538052327558,-57.385778239106074,-65.34261962825549,-58.49590621616978,-33.38873876495363,13.292076042413237,48.38906696339889,45.558758563633134,35.473361023596524,50.78934676400439,88.66893049500129,144.9426106743461,204.25780384773955,231.4225310362564,226.41564519778163,217.99193115797578,203.55020452197908,174.4007805442674,153.2766919020774,149.80709247965163,149.7638385282765,155.6896165812836,164.86451104130236,152.4593898434653,124.75317980323484,111.26405047608547,105.90750086961702,95.11827035739198,92.59431753981134,97.24097263089864,93.82526403601588,93.53320810455672,101.17950817795182,94.40123818383074,77.68790653208029,75.08471122940227,75.34412663001447,64.5459284365123,57.740159543248765,52.100534066975655,33.53292228385734,21.803157530085763,28.532297571574667,29.21513827604385,21.240697135080197,23.292805965430972,24.584835761996704,16.57453305834659,19.51898740051571,31.285376610108873,32.99828421631071,36.65301083499429,49.3123302004258,48.7447316342493,36.746295937444536,34.99599127473496,35.13861010246451,28.217116603686705,31.21121593783387,40.32892273216366,36.44869538549518,30.86242323251473,30.665146402001195,15.538084335237922,-7.0007269136862575,-6.850944970410299,11.886825420764385,34.97168204694812,65.75043562119784,86.8900282602373,76.69239436719602,58.32713312215077,54.74883829750858,49.7760396484144,39.463124690838775,36.22111693490574,26.736105319392568,6.380335016120808,0.18675581573274325,6.245477314628322,2.1361248655886778,-1.9354290546727524,3.697493046270375,-0.4671005665473724,-12.857140574501198,-14.355262952484365,-16.282150576353022,-27.534402428875964,-28.232643088962227,-21.125571811309882,-26.910450130100763,-32.57120783156092,-24.434449461857202,-19.54675935781028,-18.254535551089848,-8.058782136518573,-6.898908954684615,-23.41981444113572,-30.431046373765515,-22.541040726737926,-18.688877333842488,-12.788892066663205,-0.2440704560392497,-0.7234419832202066,-8.56965276517823,-2.843977965287681,1.101010212574495,-9.644260481543212,-15.957799481798041,-19.75992356390563,-38.359633118828114,-56.07894407311499,-60.72797093505303,-68.88434910138204,-76.69554861810145,-70.34155650785128,-69.02566722339532,-82.08947126284895,-85.04186213062155,-74.94317486168372,-68.46565166997046,-58.48097033943858,-44.393901177676,-47.76101090312866,-60.319142395115435,-58.449395135208334,-55.497451001310765,-65.16296816517723,-74.71634191983998,-88.94369995524244,-116.1277691805301,-132.12307658661962,-130.05982485584303,-137.5807559212269,-155.2164929826178,-164.06801365100313,-172.80621726974925,-184.20683390587945,-179.09654124228578,-166.43934842451245,-164.0350015113596,-153.8571331438709,-131.22987818277608,-124.34996649352512,-132.70606808359773,-134.54401941950363,-132.8627908844624,-125.00217455069681,-92.79789561279625,-52.57984311228603,-32.20888332117946,-19.485770126944985,-1.0061142820989453,12.548591220695492,27.827639324624442,54.52148468079731,70.84406716095762,68.38167478591768,71.37272400776088,83.0691827842188,88.51076988365128,94.97099100955839,102.89645399980247,89.50586505167786,56.41595779237656,22.119515211639897,-20.41793445203758,-69.08970831017686,-91.68111336999353,-83.86485508474976,-70.60147450608635,-53.86982915775444,-31.99722209045074,-19.273427078999255,-6.363453562321952,23.022884655412227,46.794907692248735,47.57550241241136,44.237857262545724,38.10762145063634,11.354800763297074,-24.069018010479944,-53.59165704792123,-82.44105799016437,-90.85946789776321,-54.13925743610185,2.6186425546149685,49.96645635234256,94.57029209319835,131.23017911835376,141.83342661256864,139.02366970808978,135.2797090237048,118.28258325678583,96.49800151695686,91.38262895705216,88.97710982201869,72.61233216859362,56.295084834929,42.56162288914957,21.429408850869564,9.80828899732802,18.267265392721473,24.70599985360444,23.9365478046916,28.32603167536886,24.86173600145566,7.3901363854792965,-0.009207195660336481,3.7155990652119604,-0.6870828966061326,-2.894176684796378,7.209027753600591,12.874474102082038,15.673727360325529,29.17660384813168,37.79149979482099,35.430452038230015,47.95095049780355,76.28600676728982,97.92145494851611,115.7150977294129,132.8407475833286,134.8455620250408,132.5852709636473,144.8172945694759,152.37628262255544,141.54132677555012,135.1907406079829,140.90196761550544,147.02182973987786,160.2423280524343,176.11167698507353,170.89285896874134,157.34694299368965,165.41483611767933,184.00367237716364,195.0890787523303,205.1846009335976,208.05697409946094,194.4502797503282,183.97858440165282,182.91751827093782,167.79379307618512,139.98911873483442,118.39564437327834,94.90624932489649,68.21898542268332,61.66628411808618,71.35856490483614,75.61234490821641,77.8482039345486,73.64796232400212,42.49861676439779,0.5704351175190006,-23.755433825854535,-40.77430281227564,-59.15031609289259,-67.45400597055752,-78.98955155219902,-110.05498271114212,-141.388490254285,-161.8248692615189,-183.4100909421092,-196.15450009362178,-186.85342268595505,-175.380641009059,-172.1095167640472,-161.88388450229826,-151.51437482631965,-154.19930431443453,-149.47078755574245,-126.28699434039632,-105.65900433461614,-90.47895973173604,-72.19387405963691,-66.13258040060619,-70.2874711520454,-55.37266060866813,-26.625095784088792,-9.764761067251854,0.9346220975069905,9.44912793175268,1.0127735470820083,-11.720956828138322,-9.764501607383579,-11.640181943580554,-27.353552828940597,-37.309038301012784,-44.59333229448146,-62.03174019966258,-72.32643218267917,-69.96456011214971,-74.63693668261475,-77.92241476298706,-61.367405628682235,-42.410639714308275,-34.92191011945929,-28.0057746456042,-28.847843112839204,-46.952005866424166,-59.674621290251224,-58.62471034175725,-66.25825709697044,-79.35813458725015,-77.20599295218412,-66.63800044874161,-53.032826947236714,-26.691652489551906,-6.190241370145361,-14.655587189682148,-29.966303021830612,-27.79799791706806,-16.01526096612909,5.4466836344590055,37.660132177106746,50.804531536951146,31.686613066744073,5.702350630911736,-20.096678552642352,-51.97189739638865,-68.3732717437525,-59.90186803126083,-48.43162035108095,-35.31978073380634,-13.215907927893333,-4.410698510868457,-15.72363922455517,-23.276024678600574,-29.612259891561816,-49.91517847540681,-67.65923913663444,-72.93772150394759,-77.643038531186,-70.549655575254,-41.61316615456157,-19.850695824504356,-21.049818337915188,-27.319884906480965,-37.89133243582997,-57.79744735351203,-66.68955242961917,-61.24974987698538,-60.60446809007489,-55.046237846418876,-31.267254329676604,-12.772595190502564,-13.571133021661101,-18.35822602535746,-25.835520427081555,-37.22313981060758,-31.556218762533774,-11.068703878005572,-6.298049219812926,-15.60992062865165,-16.78995569726776,-11.477451938072537,3.8189670445016715,44.760916213112466,92.93260839125912,121.67599392574535,142.73170339288134,164.38410465590087,170.4053260242036,166.14427983030174,164.2846191029373,147.76608569505777,113.10846197872006,86.99527063091176,71.24565140205553,50.61076236747954,36.533001298500295,34.431178202058305,23.66721469737238,6.050462334598029,-2.3262114198687387,-17.02646797451656,-48.07860610372509,-71.43748864490435,-81.57987022342996,-92.98558430586769,-95.25482818203724,-83.73983828323261,-82.63059515320138,-92.33799736974007,-92.97226686386104,-95.55898206578138,-110.33838626847714,-116.22955166746486,-111.62279656563277,-115.10661389761214,-117.4361188774229,-111.21568235736387,-115.22225528629819,-123.78904616335467,-113.01923609577318,-92.22949059249073,-74.7223254692291,-50.931653844729006,-31.148595887153455,-36.62188464685473,-54.711089571151675,-72.26695670345575,-100.63009715046243,-130.44900853143395,-140.2012235476489,-141.06916252025206,-142.87582682291844,-130.38658289591726,-109.56778832888172,-98.9514513540939,-86.59343140161988,-63.80391390790334,-45.55602090558637,-25.942500670689988,9.42921512947466,44.67083314728782,71.65145891300268,107.64110607992994,149.6184730684804,182.0570213942023,208.41920991498134,224.18877400694956,217.58621080428765,211.89141570183045,233.4631415111242,261.33816026429685,270.86272150662336,265.889625886072,243.3047311531464,207.7382406334625,191.98707131938895,198.7672277104411,194.0023352701649,174.349991235015,157.11176820624104,134.30514614265826,103.7304712013769,82.85151082054153,66.52456383919801,45.7075061055414,41.792090760918704,59.50308229573679,70.66378164316576,70.5902505641163,71.587295873268,63.88496993449108,49.68686700851248,53.98166205386488,73.1618514065321,87.70588244233483,102.55810042067498,112.23115199073001,91.76993992512276,52.7393645468299,27.00767770008735,13.050435684780194,6.325961245309175,19.365182952506185,39.43774009756977,48.22630018628183,63.02822584735821,90.86418634232513,109.95478388648164,122.91127038036372,143.31435119380444,155.31774997762045,152.22388504204858,153.72703529259053,160.1682615697269,158.16809965391633,153.8687848842962,146.11861640984867,118.28664772693251,84.36514720505636,72.56627419797397,73.28610027775264,67.91689704736628,57.44800085547065,29.697449269443936,-26.683015613141272,-88.93354036209936,-143.23029761984395,-200.93965467539186,-246.74997982919837,-256.15993224343924,-247.0318840669965,-240.03369434850862,-227.72749800308713,-217.41022175509863,-220.12402317595752,-212.65615483976114,-186.04493313382994,-169.95235759858866,-169.02351191062215,-162.6729446848978,-157.72781240597996,-158.26953794788926,-143.4809272229986,-122.80181372556783,-124.62095692909861,-137.1668732766389,-141.82566795296867,-147.55296602912478,-147.51246173892312,-127.0048224354451,-109.13803531518016,-112.29074222965446,-116.34637219735201,-116.61912392902798,-125.77334809943504,-127.29980803095384,-112.7876674121467,-108.58125637560529,-115.59235194444736,-114.03562519910314,-116.3995580198645,-127.92723828646236,-123.97045699329479,-110.28470594673509,-109.36139368082776,-105.1654577164958,-87.98274660785951,-84.02808245616681,-93.51982227882775,-93.97921399563116,-93.68556433803751,-96.77537267886038,-82.62012071663212,-62.39873231857884,-60.184209340842244,-55.78980259361302,-32.68610931730741,-12.957831684739787,-1.8090428407028072,11.503866849292754,14.830382538911895,11.797092809523651,31.41321110864967,65.97498250132797,89.76178502151572,115.2433708340924,149.5471276360586,167.77123823693557,168.56291769172554,164.63632509182747,143.30082105983348,111.64107929685439,102.82825672968613,109.63907949870577,104.71646347745182,95.54515547844197,89.01931584628446,75.60439207946868,71.60030300416133,90.65723759503997,104.31963343784957,96.47406925934428,84.80276979244078,69.1990701216849,44.50594605121168,32.406143480016084,35.6401786539791,30.10656514633155,21.53559181337024,25.91786263871466,27.128274730040168,21.563256150000605,29.42824867663683,38.79373179032351,28.609800684430756,14.5326543544729,5.84914716501172,-7.4041276413184836,-10.000295125877003,10.917025538236004,30.948883276313087,39.673034899915585,53.60127797673988,62.870686258708254,51.17018570614897,38.944112983235506,41.0411946488566,47.639193398736346,65.57544549863017,96.20876496307564,105.62199702446952,85.23797267036294,68.97242007083028,64.98580547859638,60.491924870734614,64.56913821672167,73.073523808691,62.8782205769792,45.9759585512941,43.660311928936665,38.48168649732955,21.412913722751412,11.618048840837659,1.4780770195642647,-24.43003434063135,-43.556080498559915,-43.591164727159075,-41.424084911531,-31.25106761054197,-5.616330501504747,6.804209815295688,-4.762900787207143,-15.903316025253233,-25.664552943223306,-44.47633953684741,-54.63061272676927,-52.45224978688712,-60.38481051346351,-72.69569687385084,-72.8902499800127,-77.19009201809769,-91.00411661106753,-91.13628952151801,-81.0893793723843,-78.85502988778255,-73.51327943476306,-63.91222811368731,-71.3971131940053,-85.852626870217,-84.83404600932587,-80.97203264990867,-81.348192722133,-68.81463067100162,-51.463427957555595,-46.661998733558406,-40.22585209206626,-28.30735216964772,-31.35277969783004,-40.709514590340746,-36.46352843524064,-32.91349650423699,-38.43227093990861,-35.97620888364896,-29.586732439495528,-30.16573702446398,-19.184609115257004,7.30873495845078,24.500008837589867,34.33066635997176,51.388308858492664,61.701519132448134,62.034852370407364,70.99863143860217,80.78166650509691,78.0095470242907,80.93382138966005,93.36686278052755,92.8747246367055,86.34804728017855,89.96264778417756,86.09753960355724,70.37222286300414,65.85283732057962,66.9912739061229,58.29151237307056,55.828958398298255,61.10111915104683,51.05364743867868,36.50932230549312,38.537016952628406,42.7325896856903,44.11832651413945,57.03778840343529,66.03565864821647,54.350232312907266,40.19754103151398,29.97861886947694,11.05801166694014,-4.949196858386269,-10.231656748829185,-28.648118617061662,-60.96878504618027,-76.89332449630753,-73.37943720588157,-62.56358936959771,-41.24616161458451,-25.708433733716294,-40.86877686766179,-65.7806748591774,-70.78257853088506,-68.13256902355964,-68.29704017805236,-62.2445350961846,-61.557349355927855,-73.26796466983107,-71.7658927537694,-52.92855783244012,-38.98246633747675,-24.25398876555368,-0.5553401496032215,12.29915452366935,14.156384792570542,25.999065128849498,40.148726260712955,42.99404421287164,46.44037282440886,48.526154147910475,35.01467882401644,24.656159286880808,34.23449054198087,39.99796627562562,28.655419649320372,12.876548110399188,-13.545792893730447,-50.635880888966895,-63.52704917632289,-42.54656733787745,-14.456134426560734,15.953668042867431,47.688354787978405,54.0189201778463,36.07584122391803,25.8087917052496,22.480663513155726,12.15323006682004,8.606196634155642,12.438992857519647,4.979988138931542,-3.0434769151223264,1.7540808148456692,-0.9011161535096923,-15.325391748241444,-18.939180715877402,-15.432876817349662,-16.809514378287258,-9.039623183221401,5.3529261826871775,4.540447347736184,0.07980974439546196,9.065436061598408,12.883104405204772,4.704652310673611,2.181501692973019,-1.623033765250447,-15.561745100933104,-17.027573391055235,-2.991124722985959,1.0292652179369943,-1.2607366702886027,4.733781917318785,4.332528026085751,-4.534521649452704,-2.307789836016312,3.1238720957381707,1.1443720955249288,16.019266684246954,56.52661867601229,98.89169843848195,136.49462079983562,165.26522924009842,159.67071715257308,125.47456513521605,99.17784897183566,83.73602016978998,68.33661288057748,64.32476099780583,63.8021107625994,45.24840520357452,24.258275053542377,16.305256759591487,0.8500490644638496,-25.088662543153976,-40.782147308230236,-53.34242065690651,-72.65531552121682,-80.67115188922548,-79.16167057332613,-88.03654054575874,-92.09767082069547,-75.03506421378884,-57.6005284767904,-45.58267824546664,-24.318569836213875,-7.63739402085273,-7.357193638266636,-5.439701496455891,-4.990202669311692,-23.97524735421103,-42.86834379387694,-43.67227341546483,-46.75734883956041,-56.669110015093246,-55.60600843083169,-52.07765338265315,-53.385173707406935,-38.82984942524997,-11.019649168772908,6.308664371696489,20.647408104212698,39.861273152940655,41.04837253906835,22.93595256282386,8.906233591920074,-3.917685228647083,-19.1190271939437,-16.75286018374386,-2.344806893050386,1.7292594627989983,7.411613398207901,25.185619328464778,33.76963851811469,32.14891868909999,38.13612515976408,37.70500007933505,18.769236820856896,4.837697740857282,1.9768204681627353,-6.687342248192717,-11.472443952850538,-5.085914427864211,-10.761227401527892,-27.243486733044357,-28.53755050539577,-22.192697298366866,-23.95968819994755,-20.187639681334048,-11.30881804582464,-15.936113439390269,-23.068703325628803,-20.430003644058097,-27.427170075464,-44.302782460953175,-46.45385579881385,-39.29929799676253,-36.076666603930455,-22.885386125814065,-2.283528841061865,6.34140705601404,16.229428224555313,40.36324136234123,56.159944116409875,56.1791046157675,55.84435162648762,49.270158568324966,35.731643089170774,39.95772679878204,55.826864941742514,51.65514097772696,33.754963498663095,21.659727837896316,8.181238960569598,-2.6706053743848748,1.4748881372043345,-1.4091053402459122,-23.661167196849856,-34.004322378530574,-24.310592108084727,-19.327996907520617,-16.73503615086117,-11.568263550720403,-23.96540516256657,-46.50825447069556,-54.675020846003356,-61.376055053837916,-74.2675274009043,-67.32785634598308,-45.97634041730993,-42.61171259592851,-52.40418679379039,-60.67256511867201,-74.53337393296869,-81.35465573649851,-62.55285986726079,-40.71824629313765,-35.2787043689123,-28.9835676878734,-21.792007036005735,-31.987741798862352,-44.75676900655536,-40.5224351136858,-28.326986106604068,-7.937845882934277,22.12459364629422,28.70376987270859,-2.714602634141899,-34.66861217198118,-43.64530831121571,-36.95689388632803,-10.946934853039819,25.96721749965889,42.41872769789861,43.54579136415612,58.23748058277309,75.51449081132898,78.58204130525134,83.06912832070445,89.37248753288955,83.13251901872454,80.22402635638404,89.00250420762228,83.44518841805085,62.647860747802206,50.43437755175716,38.46304178806058,15.54662637413018,1.564765010220286,-3.1799857956114965,-19.992258841852248,-37.68337321219537,-41.63881438992605,-49.677290384766025,-61.87953956064503,-58.16298026549747,-52.2763051395627,-60.42783148117641,-62.773192588049625,-54.414200005916584,-54.37260931551334,-56.49861482371023,-53.07927180705161,-61.99377593725078,-77.58540433230385,-72.40235596392519,-53.9073601014142,-39.172305992853545,-15.7254158402621,15.8791120320372,35.771411113583184,50.53076117501983,65.22947738940333,56.87008904600375,30.46989309873916,19.846866319383892,25.865132027034075,33.71080585502774,46.32562865265069,50.42268539267112,27.463785479270953,1.362536740286247,-3.6329176494109694,-3.4732592311490182,-3.6668178372796993,8.03897223269202,15.897547093712348,6.69783659483808,-0.26476209698150843,-4.337135797960345,-22.733839202056757,-37.60842721559311,-30.73588913691853,-21.778003511838726,-16.412266278507936,-1.0438097937315938,7.7420733255524725,-4.353185736942062,-16.240172229384058,-22.70335552513872,-36.719610232627225,-43.15151976783827,-33.4534753685525,-33.4196068487768,-44.71755172480908,-41.63542899637141,-25.798026054026508,-4.520847605165642,31.26731117869234,62.40198247000818,60.54734068576623,45.378209532191235,43.0576930538189,42.8566591047259,40.264137201616634,43.018283625338356,36.01244751861947,14.34745609872897,1.1623626161702278,-7.140462837574138,-28.95782733924646,-42.12048610358698,-24.01418024713106,8.61047167046355,43.90930113976683,78.45113418561007,86.18241250144,63.440755471939845,49.55525311143822,55.744446959824714,57.91819820464502,56.15949906932116,55.804545671495376,40.40815699693384,18.492653324475853,17.29759927786151,25.206017913361446,21.743325974495253,18.244374224924716,15.227747365940246,-1.4058947131647939,-16.132219573236405,-16.15267621637208,-23.82679999502804,-44.413222455534395,-57.30448520499018,-65.53672405818456,-75.16826121527009,-68.41965957395924,-50.72649888371643,-47.99362756473957,-50.685371167944474,-42.69038489028816,-40.85387337600283,-49.12755481755133,-51.261691915563105,-57.44242930271872,-76.96248817786898,-87.06219098993456,-83.49851121136221,-85.26449544512508,-82.69690349788107,-63.54947393255064,-47.79192645692832,-40.692305610601906,-25.294796988008613,-8.95088244552418,0.8494394421713536,23.936267013759146,56.277686842579136,68.15324401057723,62.38677089842598,54.01296763018851,36.09224868189551,19.64509769940028,27.352425407527633,43.89871446923456,53.86112047863534,75.33985650312239,105.12535377356565,116.95197034623628,113.8778483184428,103.13470130645035,73.99507586617742,43.05700219722082,37.46276597710514,42.115766154609986,39.345610433068195,42.149498435959885,43.56067639141872,19.276826882222487,-19.237971134002585,-51.21393435655327,-76.01840827299657,-78.17136421404749,-47.427437312841,-22.73958024789492,-34.13100488287281,-58.69255475285453,-78.1004505080709,-92.07930986061565,-85.03190632049754,-60.76304573093876,-52.156795704178975,-59.026226558097456,-60.86075433153711,-70.31267059186588,-93.8523620915468,-104.46267010543997,-97.96428422072874,-90.84195447783368,-71.42584915503144,-34.83834061288917,-9.18973226957256,1.275647797176111,14.93656299848781,20.48931969721765,9.729447167623078,6.809214230898449,14.261604528595775,13.257696927893925,15.395265350234322,32.44799168199268,43.554857669196004,44.48582092762214,52.441148114616624,58.41614909960495,54.492584441942256,60.47181604471878,71.83714949113386,63.60553198111108,47.378598113100566,41.1071397901567,30.948338616983065,16.165042536006407,12.395229766224249,5.67456413223301,-15.270448656997091,-27.385321619043278,-26.879910973860323,-33.26324351065679,-36.52235493403386,-24.210050549393287,-14.844518199386851,-10.813266895655847,3.8416237470979127,15.410972780814717,11.233198980990377,11.195862818224759,16.791017642964626,8.785294306186225,-1.336272644511788,0.6402667959024138,-1.065248578482243,-5.826833451547373,3.4749183920273223,11.809363007181874,5.482982205221273,7.714606502662843,26.077575689479133,43.71682649543848,66.78138134720508,96.38792370219502,103.5525168469437,87.99323967703074,78.9582791273589,76.29818368938692,74.0973072569927,87.5166087884058,104.72232532223966,98.99374426862163,86.31081243791306,87.6087016221606,88.56214576423746,86.8071109562299,93.66658290546994,91.02948967058549,69.84917649300257,56.67088067921586,53.80806651629651,39.815342177227016,24.049182388278936,17.43919392356332,4.7547143721787535,-8.135359300548586,-3.9173792391914226,-1.4605373745530403,-14.57517227219688,-21.983860953541914,-21.1766058188813,-27.81919400017405,-30.833939788288667,-26.768634351284373,-39.5381677257003,-62.996425510479746,-72.2322213054023,-78.02474522520802,-88.40245434838485,-83.59388867297336,-69.29488312259265,-65.96566512525575,-62.55693589708877,-54.74892094776891,-63.31205991210816,-78.09573457727727,-72.71099768570119,-60.73372674211034,-56.849493635896295,-45.99295256993916,-33.638773818290744,-36.42334954406145,-37.05678584669952,-28.871111558106413,-37.26305781183228,-56.647216767425775,-57.92470142275623,-45.00873829000303,-24.880847302407282,14.554959096364982,55.79172577331435,69.63414861372122,68.62268784078333,66.53505744239888,50.622490719319984,32.386741910509095,35.01173980061385,42.89065598256647,42.43949376490433,50.28487837015797,61.76752254564232,59.4568501484914,59.05583336399623,69.54107921601474,68.46946329479769,57.57565631543344,58.16803495071731,59.27776565193838,50.370475638169374,50.60817260942375,57.20396803412878,48.69585474703758,36.52232948173206,31.27353797452869,14.185298450130002,-9.427484059044609,-15.26661529294401,-14.879389738813918,-23.684860332501742,-27.546237992147145,-29.370316436442597,-46.65641522917645,-63.267563236200694,-64.17602126704024,-68.38542496021009,-77.35983179218798,-72.0953575547017,-63.980580149948956,-66.41454994089938,-62.25364470030458,-52.44911812185528,-57.81161475416169,-66.73862599434133,-63.66388658438237,-65.03783878660211,-71.54991993616702,-63.91813627341975,-52.925225777424714,-49.470454865543175,-31.458336206170717,3.6596227682482194,32.855504538696415,57.77972667988938,81.33930833390937,82.5086228939206,66.48856759657772,61.09017158971443,59.229873914272275,47.062586496752004,41.452882819961516,44.32611235646178,40.3268096777643,42.71002566416169,59.10031205527417,62.52977666404915,49.30218290200372,42.35460578879871,35.65521771634261,19.182237367255755,9.610048761150185,5.038334398894539,-11.122096879950055,-24.5386988889041,-25.931979997567407,-36.782818810506754,-53.89880095588056,-52.00601474027238,-38.97237517848549,-30.145979884294533,-17.76399235100555,-9.816318443570275,-19.60700763270781,-24.765753634101408,-13.183656445482935,-12.084157265284823,-27.704296495326354,-39.84307812042896,-50.7158072004938,-60.95685010824012,-52.3653105080738,-36.76569924259081,-39.91145745047832,-49.182970124728826,-51.97597653531497,-64.96218680095957,-83.06767096770226,-81.98809678624636,-66.29580162312062,-43.93078225089148,-6.838229059466283,25.47564083755758,24.467936420561422,9.879352864904885,12.038856498658328,24.756218466119975,42.49716339244925,67.14663827076932,76.82519722805318,65.10763455317318,62.75189490565171,73.93774301383016,73.99991750610758,69.36261663828941,73.6128868601868,71.79752165235709,62.87228060715694,60.51870039666778,50.03223008077824,23.55137016240854,8.068859021440266,7.369606314831969,-1.3495108592398712,-11.411837733169728,-11.725449463014813,-20.02108603872478,-36.82751865491743,-43.862587651183276,-51.16410874630941,-66.47910136447312,-66.80657093576787,-52.976152823623075,-51.10575774090796,-55.324613302242774,-52.692050585424525,-58.28589935526806,-70.59254683883947,-70.27491452955886,-67.94028397587725,-74.18385189133323,-68.60373634801618,-50.54943993052516,-43.233064567029004,-41.7611732328967,-35.96503771833659,-40.469428945576325,-50.513179385334055,-44.20145522256982,-31.75961426749587,-25.1176170021224,-6.747167277272552,20.635218518247935,33.08419758928509,38.83048656622113,52.21443324506303,59.99581848376254,65.96437580525904,88.18793639152804,107.71927462785087,105.83464823894948,102.9809335588669,104.82425693310154,95.53991329051667,87.14491275070226,89.65546830916443,81.60974629407208,61.06906836134128,46.8676237136453,30.45953644135112,7.530241360822727,5.371351402700383,25.23185320030813,39.82525608454836,48.40607103828913,53.911491958240184,39.58563418601941,14.925488015419576,2.4513004625502974,-13.065932906747236,-44.04663445365873,-68.22346676972911,-81.73200241715492,-99.39435970415167,-109.44480386630025,-106.38651763702946,-112.3719265322363,-122.84433161168444,-116.93109574678388,-110.90290052288867,-117.4084907602795,-113.20781167705795,-94.20494446204485,-76.1010178201305,-51.24767061792513,-23.424496147563772,-23.648872889471765,-47.97928276343254,-64.53077782175903,-72.46794094882324,-76.01428110851687,-57.6692611441939,-24.364025844249163,-1.8011063652975112,14.15881766386249,26.618964232178154,12.955531037804874,-20.976851662413985,-42.36111897390086,-47.315305419868174,-41.868704468583815,-17.513758609032024,8.093164441158425,4.064721850146473,-14.931690329316783,-18.208117746467757,-4.214728732910412,29.34471182519472,81.80395307848866,117.00147080943788,113.30473706090031,98.00597380612243,87.7968631086987,74.96421691470749,69.64413041491095,75.41051675186537,69.60625642106501,55.120480780862714,54.20521287065545,54.15140064302417,40.51209467331417,31.92812007515662,29.845029105465944,16.510029849062363,4.729542907105655,6.969479379915825,3.4521148335625482,-6.37870612040288,-1.6636375822780436,7.036110796105005,6.159288666683941,11.96888537843252,21.59907919431144,13.953885200034627,2.2686424639929594,2.5257912074678393,-1.5262482774199195,-10.02808047428784,-5.262763973538417,0.21561726734556008,-4.278339986588568,2.516519878325441,20.69483132564037,28.628623889653966,34.99692743155678,51.951867576967906,67.11892295335414,86.01114599438674,122.5355005723903,151.76185780763194,150.8037864080667,137.17898067548654,121.05860870900457,98.11943926004646,84.57331805614756,83.93022304435125,68.72681775164,37.264090155779904,12.454691639648559,-11.30351746741291,-40.097253766289285,-51.922204990933174,-49.62526315048118,-57.3336076606569,-65.54519939378966,-63.74338463628641,-68.77292111539909,-74.55639361101379,-63.66805446232112,-56.80449069705144,-66.6637353763879,-67.44981635860758,-55.7522392547063,-50.604813174057185,-43.796713815726214,-32.866317379030505,-40.4080230649403,-56.82864763598922,-54.78707254884412,-48.494142125055795,-53.796860999240636,-54.6192920120658,-55.109078853190894,-70.01583591777447,-74.66639085756064,-52.17002149316795,-27.922290354451388,-11.841675903112804,4.811260488157865,8.736049112628862,2.541034195196894,18.22504258157081,50.68276794989135,67.16201853399446,70.67264308778806,73.96516060992778,69.07388547748974,66.73417082818173,83.72137894980058,97.6520587507121,91.44495521978642,85.22787937821394,80.09395392778796,58.504018193485486,35.223459942449466,24.163979604244457,7.395452035297663,-14.745666836316019,-24.156352049755384,-33.73789813790306,-54.343947995664514,-63.99635536159572,-62.09426901006377,-70.35921633519628,-77.99009759135083,-72.36942257832749,-73.71319311728456,-83.52745311072854,-81.37001427011444,-76.51434286935041,-79.78431533279172,-72.71815674533795,-57.82236148751276,-57.73708511957612,-61.49638178488563,-55.35695902890993,-58.16030717346942,-71.01220256200557,-73.04033720918221,-72.47293757653685,-79.28427068629861,-74.62155490825586,-59.73925712633462,-53.918413040175714,-43.5240393156127,-15.475960726933977,8.6871584833602,22.021775477040986,36.95336266062226,42.32405346974639,33.58725546448542,36.85420704944363,55.606847868724024,70.55008525458604,88.15543820160741,111.98918705483146,118.54807099398975,108.01970543459505,102.81469642315164,99.53744103250904,91.94759559007774,93.9100726733936,99.14555594520002,86.8404713355844,68.08812358247262,59.62258829804045,50.1211055076231,38.982057768331025,40.461286308358815,41.92647903486184,30.83124181492539,21.691037388294323,11.395416705447705,-15.554282353690839,-41.6983956954955,-52.45522379290221,-64.38482748324701,-77.314608540777,-77.44211793422505,-78.60357481374388,-87.97869402078207,-84.32781305012114,-70.00297605031716,-65.7886463702958,-61.24562976790813,-46.67223823263352,-40.24142727647529,-40.281207296386256,-30.42831260608515,-23.838113839365157,-28.428677356917685,-23.634800112867964,-13.574847844018251,-20.319250890249858,-30.756657674295734,-28.73586139637549,-26.02885376251785,-19.839706041928956,-0.4450078092098355,8.464618586872641,-4.025174591289429,-6.165703650673317,12.314657594984899,31.935685806632996,55.12848764526455,81.8347176012031,88.0759152813466,78.6108723855215,78.33882408721767,75.94480396766751,58.66664575556797,47.30824361334049,44.4180415135103,32.50036238916102,23.221149418053532,25.897821118825057,18.482609069338867,-0.19938575202045516,-9.28416163983079,-16.84930435815957,-32.0179049231903,-34.32984043423012,-23.839860654703173,-23.35300537803079,-25.277651913708656,-18.153171128140464,-19.61379105554431,-27.368022568743584,-19.135843345351432,-6.706238154630039,-5.462564183892628,1.2344775843458327,14.273899261966632,18.29244566245327,29.184647005407466,58.07754799135092,79.1059444674029,85.44412103318254,93.62048459560289,92.03023948625834,71.45863161145235,54.72939066517864,44.29248842748534,25.220897593090825,13.989305117287888,21.57825602779949,25.086556884248104,20.946750798917236,24.946485499949233,26.26155634098901,17.69274349395073,18.716406741229992,24.92659866428065,14.287281864351186,-2.6530396849521938,-14.302239474924303,-34.0317292947211,-54.058363118741994,-57.359840436821024,-63.158091589712164,-82.75567979387542,-92.77873389930726,-92.1650468341584,-98.58652534082725,-101.03050196246731,-93.42597445930838,-95.67860990068053,-101.83089360194147,-93.51487219010025,-89.14101404842003,-97.94979152208307,-93.23734255079327,-74.00400169629907,-61.24135617992563,-48.78975333567102,-35.46973182084204,-40.86073649321321,-54.51547193838514,-53.7223624244968,-51.98633024324336,-58.32985824824726,-52.90944569249244,-38.67256714553587,-33.60495425285163,-26.264462858863883,-12.231211393357562,-12.4084990928471,-19.270919855827948,-10.447325463273302,1.461132318606801,6.5810122836727345,20.056028214920957,33.226872870257075,29.992398294463648,33.12639509067128,57.04184532588223,76.67467278830941,84.14365484037658,91.37226036655554,85.72721316684192,64.3017263022264,56.18529168668009,62.91861505342486,60.91909625984049,58.32905402196976,66.23879120823217,66.6395403413197,60.00359346095003,63.29500110191121,60.41585936282574,36.8970858865286,15.793714710463654,5.935531160710996,-6.646190431692903,-12.267068978373551,-4.560424849637339,-7.51611305136572,-22.47358703559158,-26.324050751094646,-26.301958920948493,-34.485194474162775,-33.17666701148353,-21.328271332608907,-18.390386340187565,-15.336122835607743,-1.5924736429727657,4.674705065998493,4.010846811481205,15.677179718541204,28.227085166379823,30.756283810155246,45.33786851739216,72.61609740007789,87.14304955932434,92.4300783528664,97.38718374626615,89.61928377564976,80.90393151792634,92.88349584743335,102.94607873341788,88.54923345749822,68.4313871225151,51.581025973150204,30.128792931615262,17.0055950519005,15.17872804615378,3.8579272843038774,-9.77826803772232,-4.4982480525441035,4.825092277137684,3.265785678811881,3.9736053428049285,2.9448668106651574,-14.477675249803424,-32.96502205029785,-43.6361037339605,-65.05764277866342,-90.6348835210949,-95.07188953819166,-86.20978548404162,-73.75138257750709,-42.991669420338994,-7.4893532385691985,3.697313030874882,6.208958694493953,21.569204622541125,38.688787123933466,58.71639648129369,91.06200232621006,113.44859588813691,112.69983991523802,110.8501725414402,110.31981429579719,94.0693760865421,75.24027846225184,67.40035750672904,53.659461140125124,34.08531797229031,25.751957477787144,15.259632915871844,-8.742089333966948,-24.865967795535102,-31.16328055630452,-46.62361456905159,-60.04243529710841,-60.25983345782711,-68.26667616424706,-85.68533099789835,-91.0587247447942,-92.5209189872177,-102.19680637009907,-102.99887729390156,-95.71514713239232,-100.57372547635299,-105.55651605181511,-96.36593972341754,-92.60372499461283,-98.17033155884577,-94.82229397345813,-91.59795855329075,-98.24241005201964,-94.84919023662366,-81.69285312119301,-80.3799091941224,-81.20437983025093,-71.38768570512809,-68.96744010367908,-74.41973731324565,-68.1904598507007,-60.537601181296154,-61.797642389488026,-52.39637454111232,-34.927245874436224,-32.3758358255152,-33.72162116789582,-25.297689964588898,-23.194142497075585,-24.12680343130542,-10.118014754702127,1.843771399419202,-0.8161617995726056,5.4306176230742285,25.161044693305357,43.47221627139133,70.80399263577833,107.65709860707096,122.36254832780271,110.535441663182,96.95166433244685,82.32072799564872,66.12456324026994,69.38900822139573,83.38246336732777,77.38951025730672,57.65482781257068,38.55666807025842,10.40609674218436,-16.02071535756421,-18.454864731168538,-12.794697817763279,-15.520741706733453,-11.438774709975089,-2.2422126064252925,-5.242834587126865,-8.999059282820133,-6.955483347363627,-20.809187400025124,-44.597690411391554,-50.53849570721755,-45.55045486774548,-39.654812442100436,-18.244285317365666,7.787080960437111,13.231167434210231,10.06401327349104,10.741827425672527,1.555009157858509,-8.657273253694225,1.2549610387548205,14.947534907527187,15.835760123765736,19.817633454938793,26.77443477921031,21.247268780422598,17.93544736321229,26.88839543187884,25.917419988069547,14.792343266992452,14.17201327382686,13.696098972520083,3.0279425140543035,3.084820485168557,14.818837558559643,18.46346801041627,24.677975680812736,43.0321385730491,51.84930166412377,53.52581781983952,74.3839759547852,107.47387019014519,139.402316308887,179.34901966407114,210.93340056495555,204.34705129277,174.63246451941183,144.03582622172792,102.65539634758073,56.125007779644314,25.307347358562268,-1.6241349232968316,-34.43864051192717,-50.92867641852312,-52.404737852635826,-62.36148542789757,-69.66599664946753,-61.08639490118159,-57.86743002222576,-62.78899902095518,-57.083203062768895,-54.41352043151135,-66.8579379396785,-70.25428766741443,-63.12832630278749,-67.90248988798486,-73.84928801227632,-70.63216768173648,-77.97408487539893,-90.30103767614827,-84.76854062688545,-75.51305864706774,-75.7874400024003,-70.1672206161193,-64.97537036701942,-76.13526180372128,-82.91303801811202,-71.43215954602586,-62.38634394681678,-60.077318274933894,-55.66533900122536,-63.169093842073444,-80.43562994150449,-76.78814018945157,-53.630680185780676,-35.06448324419949,-17.17520279108993,1.545851491288082,1.1852643708866384,-12.273431706897906,-15.975814347596398,-12.172734335225611,1.6205299756505163,43.65206864277122,94.21380495095151,113.67390287135618,106.66496944202672,93.87647451035534,74.65455499810655,61.00680906037083,68.24687493526417,74.13137468611032,61.92382946239391,53.590995118616334,54.071043815191636,45.8330848736246,39.765483617316406,46.00905392533122,42.96371357983637,28.888955457945844,23.305244279733593,15.716956256080158,-4.95468476976344,-18.419980954788745,-22.5446439963685,-35.50121782359133,-45.40635737107745,-39.95578712649443,-40.15086393254467,-49.960489806777424,-50.73659233726728,-51.39307590186696,-62.15345478376915,-62.96650369823367,-51.94058449952742,-48.06075252339299,-42.15247238501283,-25.331083312883464,-19.46604703337724,-27.615942087107335,-29.071933079096674,-26.049274514613337,-20.426860265506086,9.876945371817627,59.820110391003354,97.12867572685613,120.81197180652119,140.2345135902693,140.9131372542501,129.55057643591732,129.60319829202143,125.53713945262209,100.86038813317641,76.74212501024795,57.1558945335624,27.8639151531463,6.843822548725068,6.109114012534958,1.282263545610685,-11.46757965517194,-15.554471162676403,-22.01369155856906,-36.63100924440682,-38.04649001405264,-31.409863689000538,-40.8439839249585,-56.32147803857764,-63.63240424140412,-74.8015473808926,-85.94132276828101,-81.07851519912467,-73.26017291024507,-70.46682303286002,-53.35748410485586,-28.35919757283547,-20.675518008748433,-18.1691270413039,-2.2580953739714165,16.273999824190426,38.080911943949715,69.51019304317316,84.84190710942332,74.02155341981378,67.93540994938448,73.87518302119437,72.28076000341653,68.04163321701964,65.43055384535185,46.18214132164144,18.176584528888554,6.213213765628061,-1.3725532193119847,-17.977469278533437,-25.007935899319627,-22.476051833543124,-29.96547500357092,-36.72574603786312,-32.2414428914407,-36.495325416911655,-49.074858803482535,-49.48216167240314,-48.494821063583096,-57.923477844342656,-59.292866468323695,-52.65413316351664,-56.734115922125575,-59.694464763062136,-48.97597293459175,-43.16713274178683,-43.51602826775762,-31.443224757933805,-18.369536050704625,-15.852855715983422,-2.97109453915293,21.35096518950289,37.598543933099464,57.254340372659065,88.09099890003583,105.88549894165993,108.11568905900025,110.62345832992855,102.18622481169704,76.40841461647557,54.59186527766733,38.55776083568841,15.169834127756493,0.33523854473036696,5.431440719627638,9.822751319736547,9.50055102049178,17.277241071280567,20.084921524380697,10.97700134244796,10.669450839590318,13.900142341430724,-1.5344858186794967,-21.237989662172232,-31.05428976800292,-47.33211193235508,-66.83856456897237,-74.4479496094412,-88.15546067746804,-114.477046898948,-124.42533325226478,-117.17186143164713,-114.9647878989856,-109.35307337909191,-95.9176799685747,-96.10804862029494,-103.50120973294726,-97.7808548455061,-93.9335371150555,-99.89307993635218,-92.6888220823073,-74.97560923834565,-67.4985884862214,-60.574801359635785,-49.29335211257154,-52.57569671725689,-60.11585400925441,-46.96471377682964,-25.942620794360344,-12.287903613239493,4.1912128996278,16.356729258546576,11.917765064265957,13.982925792239516,34.39134060956494,46.14937847548336,40.57059919794464,31.215675198825714,14.615340200650934,-1.7349766517043355,9.122562201331426,38.485829859547884,57.11334056248334,70.66921288813835,87.57354814269819,90.43468392897466,83.00729861201633,84.96852397294583,83.96232399949203,69.84654048103909,63.72956963823697,65.34480470928342,54.73782902986124,44.38140264138608,46.16665233569396,39.37882165792212,24.0387480454742,22.0600408078799,23.662043999188782,16.350834902670325,17.01604944299793,23.08372798207131,14.59674259233762,5.465250288193837,10.328795219395618,10.936826952695354,6.279943324918132,14.812098014328123,24.519839214980856,23.657587882265393,32.43681781531728,50.21939211275797,55.42992627434573,60.42876708578676,79.93477396565487,94.9657149273679,102.38005458318567,116.92726655686974,121.02241102888213,99.47989900982076,75.70950405858257,57.533956923422004,31.652185292653236,12.166944295589746,7.420218667819729,-7.816559700256692,-35.7543971518188,-53.69029155187292,-64.45173046029065,-70.56824068032422,-54.07592924413428,-27.13773161982285,-18.809391286232945,-19.571349514169025,-16.854994783762148,-25.65855119717542,-41.36667568501198,-46.76463664054799,-57.142512198222235,-82.44374099890622,-98.87341454935975,-99.53303206955688,-95.78616521638878,-75.9013503463463,-38.90163048812035,-17.699115795344547,-19.37199620832779,-18.42018010611675,-8.654238819764636,12.541331605046246,59.60710327162095,112.53700904200053,135.31270509976412,135.9840129926135,132.58352057337612,115.59659728817456,89.31687450651648,70.0785284052831,46.75771848485485,15.336670288629218,1.1858487328123628,3.4375001128461076,-3.5949191687609536,-14.499260158030095,-17.27723989960838,-25.47686796884046,-34.85519304580549,-26.900525089203324,-18.632847164063,-28.047583790104767,-37.80052912184041,-45.01254615197714,-64.69991763910451,-80.61221339128198,-77.89134376145057,-77.9153436003827,-86.1594379038361,-85.60050545645548,-86.2811582646917,-97.59373528213843,-97.46775867939722,-84.7754039342374,-83.35730669899519,-87.0731086747252,-83.56724406720026,-88.26441074597638,-98.16100855227435,-89.86098360233457,-72.72528802711882,-62.595892886251974,-45.96530057013971,-25.66229554405018,-21.97349753842352,-19.979097366974596,-2.1287185481509807,13.151891427719633,22.77521124037888,43.33665000951065,61.803690279016585,68.37171477934722,84.5517797791041,108.9002050652293,120.18076059736208,129.52947176252508,146.87928387839725,148.79260488235263,130.2348540186634,108.67998952880569,77.8025768223531,38.57183509550018,21.965550793856192,27.6813190243762,26.875156220284453,21.24912949675191,16.004467354901326,-5.244914273842021,-32.99620969216523,-44.12171848501236,-51.527438432796195,-66.7129222659292,-70.80801262800877,-64.6750787635077,-65.98174147854945,-63.25524855580291,-50.3689022205633,-49.774972433832374,-57.49827400136866,-51.749091225834064,-45.734718994719614,-50.25451833100238,-46.81452627034127,-40.51209945928983,-49.328904295749396,-55.880173405680225,-50.52822316190693,-55.84012766684022,-69.49999483969644,-71.69466596474439,-70.57992216068345,-64.81710185703247,-27.935947262940278,29.9669395913932,69.85697102810715,84.20297575425407,77.32189399694458,44.10543331893421,11.191069101809337,15.03151510413054,40.24885731473427,57.73760639420884,72.93056390052624,85.83896089573966,84.64464001540033,84.99953747223127,96.53722975718155,95.65852763730119,82.63513342863706,84.05215334655912,93.06021070893986,93.0463050649532,94.33353287803433,92.56573569429881,71.93443795192138,51.405980582248134,46.66436848237169,36.73123808171083,18.21597283932804,10.997526600864726,5.802310171564513,-10.651798412563389,-20.682989614833197,-22.2026076465242,-33.11805808755761,-40.98983059498916,-33.724849798491846,-35.15146290757326,-50.20856098453324,-56.18939247586148,-57.48115056585022,-63.85333811945936,-58.55451670735967,-44.91192963152777,-46.30653788883651,-52.17373883689084,-46.89471953628032,-47.57108805394367,-56.29440609062283,-53.991464661104494,-50.02129231165819,-55.81987931452996,-52.72151891656068,-40.44742654933868,-40.099683564123566,-41.93195090020835,-32.08594743169931,-28.0945509651174,-33.03583017544743,-31.179962974703503,-34.25356378848851,-50.52405272076652,-53.50707880498092,-35.90645654289723,-17.95144748703776,1.9522904504188991,25.515708991510138,31.541239208227232,25.060791076904934,30.855371951868555,40.16704613572146,40.68324964804915,47.13594336485171,58.65755513089174,60.937011885433535,66.19897172205467,82.94826153299708,92.23509990413667,93.69652236340661,103.20632843397095,107.53115550698936,94.85033264018136,83.3610880296185,74.23100863455055,52.11595246717887,31.072949660243587,23.313437648561916,10.601248431648411,-6.602261749930777,-11.064624149955547,-16.939161969220294,-35.48089671817681,-44.907423406744904,-43.1051954353583,-47.671786082681194,-46.74014978997734,-32.47386408870856,-29.49684835042226,-40.13947733810112,-44.541597656667655,-51.49961463558954,-68.36522774994192,-74.4367658045716,-70.77256503426327,-75.60632235127379,-75.90160126883487,-59.26959565228729,-44.83747556662844,-38.77012379896395,-30.467457898489343,-30.89016644339745,-42.44465850266799,-36.692894111599095,-10.180340582521971,12.626855925186343,33.02320149880357,55.26760978044173,60.70563217217826,55.919577969564536,63.935644639803684,68.96398007947644,53.23916474262599,34.75220083103835,18.394059053169016,-4.419312662420863,-11.920522916190553,8.13170279629453,28.601987329493635,39.90601930334771,55.082615331334395,62.027910362166395,51.873723460156086,46.00448554498319,45.395991344373655,31.523595431226703,16.829952169189283,14.357486863112237,6.074928170722467,-7.95369382146869,-8.150115113136605,-6.868393940827843,-19.625234767332472,-28.81099968320828,-30.448771069408334,-40.32409349272146,-46.66750005958687,-38.62793642144494,-38.099875653663986,-47.53207254174949,-43.99830924278478,-34.116780506171885,-32.25383368758921,-24.74477767072484,-13.073117420508542,-17.17305886894564,-24.95090582102507,-20.322660235060134,-20.34686789336274,-27.64185292725721,-23.607574127923804,-19.132398943930255,-28.18225765002583,-31.74687488416998,-25.682955007458006,-27.888989227580012,-28.452761919546298,-15.271018291344904,-6.7244023091230005,-2.3507505105580013,20.217271817663782,50.61831291941857,70.71922023151416,89.96782177982419,103.54801696298897,93.96369616656213,78.89024824614754,78.54535497463148,78.19785684808693,73.94892681388455,79.3081223727699,80.44824592249476,67.4209749820818,63.630586187016135,71.72854581477591,71.94079701229697,72.48706216100523,80.52065635542445,75.5992947851497,59.53824551382611,52.0971338762337,40.392402550666624,13.021573639180408,-7.054473605524836,-14.9672900383182,-27.89186896182763,-36.78197193179699,-36.81039929975196,-52.17324510857204,-79.0849495963565,-91.15071682357163,-97.2737530696103,-108.58083618266448,-107.17766338286907,-95.92435021671974,-92.60084323068702,-83.77761614633629,-62.61675351878284,-53.02684577430171,-54.28315766910057,-46.18464019147002,-41.45030329354448,-52.79900188919536,-61.923489624778355,-69.71737155097881,-94.12719401899714,-118.56390330780926,-125.14707752805458,-127.06386118452534,-117.6527454508753,-75.77493338057877,-24.270619275405615,4.743155193970285,15.613410367046233,9.258298620687547,-17.196791932216943,-29.55069127923161,-4.471470817413357,29.338764230426357,53.004039970147915,75.4502554194967,86.07101000872316,79.54383946231044,82.09011476349137,95.61830999387679,96.36122860442511,93.41429733907108,100.57777592087928,98.14441902099692,82.35553296271581,71.07626964357269,54.4609460995994,23.600982855730436,1.6043093261621229,-7.159035122047658,-21.171379593811814,-31.632280167345083,-29.173238529305188,-34.98074357916404,-50.07213875086082,-51.338474686849274,-45.8628352212758,-47.00762423385939,-39.83631016089108,-26.204781381478686,-26.3285920912827,-27.84137849232352,-16.001962450297984,-11.0082739506696,-18.342936343958016,-19.438495109233,-21.826626875831035,-35.75116323139124,-41.179295943261124,-35.05797573390203,-36.09006951359075,-34.81911814077894,-21.029842591593848,-17.25651545900362,-28.215992795782334,-32.3775055575846,-31.776654492167474,-30.560866498748407,-7.026683744244169,36.48489825406651,70.10620839046686,92.08494231635193,107.87898105565964,99.67736482438623,76.02866324114882,68.88347987566279,72.3257029377994,70.62426611628457,75.80919538130442,82.69456952602548,72.81236489262571,61.48707308436322,59.88252610182237,46.09005299279063,20.219970685375255,5.798854881761478,-0.7500223169797138,-7.238650154692419,-1.7299983598303554,6.577919253078784,-2.7596098172862478,-13.2651672998495,-6.67967661688839,-0.3827516989873301,-2.694472229480474,-5.510669726616867,-21.99732345452066,-53.58687308662625,-65.58164425311051,-45.87610606708166,-15.148732975905705,22.98297039336415,64.69527272669266,82.14216447111299,71.78617603061187,57.21015904400529,37.67952683846731,11.148247577462561,5.075011651508235,23.6999364991943,39.01737586181793,47.448132864871994,53.79493164292383,43.63797924616411,27.454974009737583,31.51464604927692,41.660390472383504,37.93358576339921,35.39260356136775,36.415690001427954,23.922577428577235,9.955363566789696,8.586698901213733,2.8710413418178637,-7.15046521990625,-2.059240912982741,4.293839166314284,-5.625936677551046,-14.326740475421078,-18.251708477822746,-35.83165887220877,-55.48314596657224,-61.455869826072586,-71.7601261432765,-90.11795220133331,-96.98535416766263,-101.03662662530603,-114.66226580349152,-117.62455807803727,-106.41458495842588,-103.76559593003458,-103.93523825336274,-93.56107709059447,-90.1110719191716,-96.2848430854693,-91.10135275714173,-83.05986396267403,-87.24485601866537,-87.03575577821081,-79.8524185801719,-83.06504952435705,-83.04181711080855,-64.91058269462486,-49.575692929626,-43.15803803779627,-29.44042638192652,-18.05953050984587,-16.161664426627684,-0.104966906703023,30.420313701968006,50.482684977993536,63.509805669860945,76.6988725563864,71.37652714590882,49.23012911954895,35.392889850341945,29.550389002599374,26.040915403455685,42.36672236385636,73.65754594525326,89.11079359714716,88.43323268341145,85.44829838308587,71.5005759078725,50.883322980515416,42.20157646860473,33.29044880105906,10.166698897376946,-8.43443681102459,-16.822312903996405,-29.408815335163858,-36.05717930275286,-27.66294908173483,-24.201647290056354,-27.784708950807733,-22.29244034908946,-21.61129349418001,-39.460467376625914,-55.84952974619035,-63.42576635903379,-73.61902303120578,-75.1386412684522,-59.76090931375505,-44.97731299169581,-28.440191509586377,5.820085686629817,36.625532164412874,38.1216004446199,22.989441857343778,5.747834920994151,-7.942643326443694,3.7055515839295277,40.50431102188319,63.6698032854097,61.99730318791051,59.26236793590863,57.32838746496081,51.80966999993632,59.27148926406676,74.09140269305735,71.94345129843903,63.03204932730206,63.475779507666246,58.22522205031062,47.82221551200168,53.10430932507627,63.04400043461705,61.025196853028426,61.20364593364984,62.164749190454316,42.98989449023335,15.881915943639555,0.07013075797452717,-16.721392361180826,-34.68143753304858,-35.4180174412409,-30.394084483675705,-34.86929634195901,-32.25430275116392,-21.156595264118806,-22.269118731946545,-26.403298911260034,-18.99856104348907,-18.108099039403427,-28.42310271050173,-32.0444333044492,-36.89088535897719,-50.636813144721785,-48.261896595981476,-25.837886145351266,-8.77874615346674,3.3605282397746867,16.669028761130956,13.166148775155563,-0.3837092236655888,5.846073502686912,25.101468443886027,38.68126259160577,56.69563514032075,77.26359635710166,80.91159870922546,78.5720983537974,86.69998683593528,90.55042778114328,87.17317716494159,94.27236640915854,101.48805825734486,91.85230643855172,80.99869106702883,75.07620914860617,58.984435768721795,42.874131626668174,38.064727262559465,25.66001506537833,6.053262108203605,-0.3291827292110244,-6.832853577444995,-29.363908019232028,-49.7809830428536,-64.44020327477465,-86.61686211177823,-100.21809242237117,-94.72151845858171,-94.88631356342631,-104.28082060991689,-102.04419152457203,-97.01076088465331,-100.09758971976213,-92.07255200510754,-74.51613072842622,-70.94663855544503,-74.04463291562499,-73.85696993160715,-87.30486736719405,-108.19454845746804,-110.41765761164007,-103.73070943835684,-103.5146170148976,-92.8211803811631,-68.91775139115649,-46.9370476825315,-15.2601593644343,29.349323699661998,53.97099561243542,50.67291770702562,42.748316889302764,29.037382477982266,6.970920872637775,2.003381796022296,17.818758736699465,33.1558441841611,52.030724743871474,78.21969440112808,86.26753649835968,