145.84681846689844,107.64784922726426,91.24666676750424,130.54876925457594,110.1679694595868,61.270765328716564,79.87878506375414,82.07031357101253,34.619192910843026,51.53799714120994,98.62970602322149,77.43297151733645,70.15388519663148,109.27346818494306,83.48193387881716,31.99134452985306,53.156555845915484,59.37192696175492,13.956448345093523,26.26496752168827,58.90514627314875,18.985629314689863,-2.6930561320171726,31.247639784785108,11.028433076142585,-28.970453744231392,1.7335693435379085,11.788899888686453,-35.749683086592725,-27.058013358810427,7.10375547093753,-26.623192306370363,-42.477534297754026,-6.829844784751868,-32.633643890628974,-83.2452363230852,-59.277807987360234,-46.50998982506614,-83.37902373645329,-61.89279426574037,-20.47610458264348,-55.08453804121903,-75.01255425922209,-40.49599399006698,-61.434024213668735,-103.32896307295763,-73.61665491713066,-61.74820403674443,-103.0931977217351,-86.02159363584187,-47.33211458163581,-81.70332875782006,-99.73700532028576,-65.01239703584389,-87.495341117403,-130.3588593456715,-100.85837673994115,-89.37137641322813,-131.84306478727754,-116.9550407690041,-79.79329756364851,-112.57569564322907,-124.91351582194937,-81.39609919591143,-96.6918437848543,-138.04373541548063,-110.56479944425003,-100.91221682388202,-143.13994543299424,-124.93327678416756,-83.89832808186581,-115.9249044506588,-130.216361527104,-88.67917113708991,-103.34858635113957,-141.0302848617702,-110.96660453658116,-103.80363269742861,-152.04607795328408,-137.88879527061556,-94.02125407279084,-117.0633703006953,-123.90177920799422,-82.44181994240941,-101.45718773591875,-139.89333595307787,-102.11464757120135,-81.26611014593882,-119.86318969587231,-108.50044370807387,-78.03017028576943,-116.02356860428768,-130.06672381979712,-84.90301399899921,-96.23982633900775,-132.93926382042832,-102.59162704834661,-94.56066456861049,-143.25254825821813,-132.36708366836655,-94.57047028199716,-124.78205952261308,-135.73406098113836,-93.07757691843864,-107.61467578782704,-141.1616288704819,-100.29303665397299,-77.08660896003468,-108.280340339161,-82.34257153015852,-35.58185091141502,-61.3357202915016,-71.2914087645322,-32.15271542115113,-53.073248905621014,-93.4479013801422,-59.443823174286884,-42.28211669212183,-78.99815822931595,-60.22390604475769,-20.914326688419678,-51.15789055100136,-61.537837956284626,-18.63855372777727,-35.64243063811233,-77.57857769800299,-48.49605429183189,-34.6487897891694,-72.03754311176934,-51.31219780354015,-10.605977361860832,-43.96227338215798,-58.24459740290502,-13.921019500257085,-22.88168915321401,-53.375209564113156,-17.381099620344294,-6.609627549922272,-52.478894716732434,-37.08971431205388,6.9188483110099455,-14.940900070781225,-18.630178223125704,25.44501092819437,6.272765543241157,-35.54203513480034,-3.5016035535557677,14.420233805428296,-18.65113585139305,4.133579237293281,44.59176378247629,11.233394300337526,-3.9862162502799445,36.51030376251286,23.174865239895297,-8.196509038625397,33.425778984130254,55.37982640379219,19.435004151268554,37.14729569644065,76.21208873387457,47.478330946318195,41.61259335411187,90.1355238404001,75.0572735637162,30.205699354622023,53.09402495005022,59.27437348438401,16.44703000267014,36.168767932555795,78.8241452485575,47.7673611612809,31.16763541739619,63.01874260148952,32.52043028262487,-20.07446140422751,3.218619268640925,14.313727205257095,-25.561835168689548,-10.15934320254621,23.411832994491824,-13.627611991307148,-26.271127203303262,21.491664094583854,12.961982987755047,-22.24054238983539,7.88164043726017,18.83284692718145,-19.151894096157527,5.396659818068464,50.69307848229134,18.522280489278437,0.8693668504541945,39.871729896542064,27.590833686072024,-3.0054837429913093,34.0285472735861,45.591293086709044,1.315554620616986,19.66621941920119,66.80136850601723,46.42527379071197,41.51532393417166,83.693658041906,65.01246196743017,24.323950847268343,53.878765989818994,65.29041713137678,23.551732753015276,37.46709150765901,72.1404561267933,37.584732882064536,23.684583138504728,66.43639868969497,55.132051335473335,22.73778212551198,59.25296698750487,74.66753511371797,33.209062457155646,45.6662424071348,77.84830218698926,40.913471051866644,27.626635943799396,72.38006551964003,59.68984923460366,20.800937510567856,46.26025370893105,49.44340883144443,1.7733559841039117,17.344597184570887,57.85807736790874,28.453805760578604,16.691167777031048,55.72437924566419,36.13531594734447,-4.536692147426345,24.700914094271162,34.96194467120754,-6.2429579143041,13.06750553835237,58.30441738514377,36.627723059339225,32.17545155078754,74.94634749818461,53.61295382829202,6.676339794167168,30.086830323891537,36.73586851659539,-7.719945646783287,8.462730355197232,50.014719687585625,24.750075552846894,21.44300784521579,70.96667369342529,57.42631767035786,15.961087191025527,41.29879467235951,46.823045548177234,-0.3725392802251193,10.565015879241855,43.75772360158922,9.260983709037587,-2.630614675284513,41.029127250986484,26.529790410019118,-14.820643261247941,7.738868650923068,11.818352435446851,-30.18454482267301,-7.747978383887478,39.43133421465477,14.445173278554567,2.0335618685576593,38.59007309732811,18.920066449423828,-19.537401540644435,14.047335371414693,29.291871285143078,-9.78494346031938,7.6034120963977205,46.82657784128236,16.86303909160594,6.665827450861687,47.47037819889036,25.65982319117687,-21.245232903744323,1.890980434204316,10.44203090686008,-25.666577921088663,0.5468203736949526,45.09690359123478,13.520860645916384,-4.822573566039512,26.476393723122023,3.4915061073851223,-34.26686897533161,2.126430382864026,20.487293611687043,-16.9075679385997,-1.939634747580639,32.53633561795025,-0.30364346306570056,-10.024805272029285,34.92139245693365,18.900268900895245,-25.30151525898523,-4.434667317029497,-2.989516038488115,-50.41122383189962,-34.24366836669534,6.926466416975282,-22.463847101359672,-35.608040103023534,0.9919843561645862,-20.17442381943922,-58.34829801003991,-22.632687257862656,-5.80494514606199,-43.017128904844796,-24.61040740594028,13.904860238175695,-15.199101264532102,-23.260700968121444,18.642314845997724,-0.48418390516259713,-41.385194303692685,-11.324577565544697,2.0840719632105134,-34.32071923415686,-13.833516515368341,23.545709084222246,-12.757274186227786,-30.37284637880343,7.926940339901275,-6.720391737210003,-40.58694322873998,-6.935825476448983,2.259625788780504,-45.30330199617089,-34.19626220223058,2.9938641765244878,-24.57568262215577,-30.110358738864246,15.09988727221645,-2.146538629690104,-43.709030849273304,-16.06719083225964,-6.554932938648367,-47.15012645870243,-28.612849916286763,10.270278147211558,-21.75297263257069,-34.74480897393627,4.821489994518732,-13.143784069825982,-51.99815582604274,-20.634442360906167,-7.788645455343836,-46.90221539800461,-28.20591936305165,11.631603160346982,-18.925324716468584,-31.86274592369537,6.467847928745233,-12.757948363836055,-52.50425587690994,-21.46504413799954,-9.23882095557763,-50.84423957947729,-34.9166603461304,5.544538602140415,-19.505773832785916,-23.693367115585943,21.419693358700478,1.9412133898870572,-44.60072127216604,-22.518406902942527,-15.551722335389142,-54.46814940332858,-31.693876643390656,11.748611577804377,-16.298523762236552,-26.02146542296608,16.06126249253443,0.8924310402466773,-35.176844612804906,-4.380782812181224,3.870851065035765,-40.68162996851439,-26.363065789152202,10.928677155606872,-20.356186074985565,-33.77585428840676,4.291719259924058,-13.594335609327354,-50.92582310740079,-18.21855703322509,-5.637773318140892,-46.78810073698784,-28.721625988767578,15.076097346982936,-7.573764745414099,-11.74189535484641,32.51582350361258,15.664633803331522,-21.96617250390924,11.799968046651408,25.88495636503113,-14.421398742635809,0.6841399192130151,36.58934111322468,6.422725195360872,-1.0939888529549227,42.439786075232966,24.60311551053921,-17.062476566190874,11.192656243437327,24.589263510108538,-10.067931207454826,11.997145888094506,50.00342578928114,12.48646792678669,-8.037007102695611,29.162688216092327,17.438245358864272,-12.294420258887019,23.434790085342865,31.534649731759625,-21.018993548111283,-16.109006048499396,20.117356913240563,-1.1102043741211318,2.682955970822695,54.834841178350906,37.85684454377598,-11.341404205970651,5.605568760666692,8.998668363919208,-30.392238410377452,-6.910953854183552,36.11243176967545,4.921852479879565,-11.259645565285892,23.737494212431393,5.657715619875416,-26.03040181564905,16.386382366592144,38.988740928042816,3.9304380224787696,18.96546437416673,51.83089728072185,18.72782410349605,9.908960842190847,54.1264226413215,36.627358115788454,-7.89689136000743,13.921120546596795,17.590486366391403,-28.33355073484289,-14.190053795974633,23.030326666778983,-7.247114580919067,-15.177924507778325,30.481300447262615,15.174495873583032,-25.61884652357719,0.8380646954739923,7.022264110002617,-37.06234157372601,-18.717190481599,23.317783439055056,-4.267178416147232,-13.427078542614693,27.419792851898503,8.53417522741645,-31.809780334971695,-2.1991263066570212,9.52291699405669,-29.391257350443603,-10.505093154603335,28.932098595508048,-2.463503941158308,-17.759509131987382,16.614748617221725,-5.811992188446892,-45.35836842379324,-9.35392607608064,11.694712227279638,-21.550004457691223,-2.8943265821209785,33.165050671861486,-0.18349613189361236,-11.053173991843295,33.32282464117305,20.464191591797913,-14.334693958877105,19.017598755813935,31.474564692844137,-10.059955874299867,2.9742726632459515,34.931168524708404,0.3275072543460311,-9.983156721338744,32.46933320409399,14.358569935923132,-26.69955870087116,1.2124477353471264,10.44517654132919,-30.664178977935165,-13.744422438729154,23.368290654259617,-6.721621259420228,-12.76066448332709,34.79818964814969,19.914359169990398,-23.94182232121271,-3.725005368771619,-2.3767170469004766,-47.2446575567229,-27.691157193228058,14.16367061818716,-16.97804865783981,-31.251844442598934,6.372824826590229,-13.75164827885071,-55.04584807217366,-27.504093470597013,-19.34853639544235,-59.39465601651741,-36.226509027522994,9.03832435653838,-17.377991951287477,-26.70356430827904,14.721244235490794,0.936102665497673,-29.73997778308512,7.706308969782384,20.62829519883609,-21.922032380169128,-7.791712936623865,29.586301412672448,3.6820528424415286,2.016688147515525,51.25978429495118,36.54566474340514,-7.136593585864816,13.649202507403707,17.441580722550956,-22.66628395633363,1.3074499302864346,44.44327756579816,11.692141206055174,-4.4008870622311775,33.745555701215295,18.545524501882447,-14.116167653732873,19.465939634642417,25.200296906238258,-24.807581033591262,-13.708279803113816,22.922825896514006,-6.575229024608429,-15.581389664436262,25.06657751764597,4.783244799154637,-38.24394326982261,-12.93452660418585,-6.253930570141286,-48.409001072108275,-29.005134139595,15.030303753901272,-8.624948711829584,-15.561438532128467,25.264400949490625,6.848881363879162,-31.615128238418404,1.1943236787052065,16.167503301302467,-21.70690168900327,-4.379863995705234,32.4372917890579,0.7550114633501117,-9.580379442484663,32.618957022618275,16.540023500431417,-20.321728373084785,11.925024651176212,23.26407869200264,-18.0192307266383,-1.4424850124877207,35.87457629631928,5.713772586700697,-2.1730172854268375,40.94185325825728,22.82371519957508,-19.006227167199754,6.372098797279627,11.74897372032093,-33.149613957119215,-17.783199970083803,20.61910931759803,-9.44579492320203,-20.799956983915116,18.40477686910304,-0.9201176476466593,-40.97316386542769,-10.063913436341586,3.9814446175797187,-33.288975666468396,-15.435155462089334,19.983475610621383,-14.445769146914756,-25.798715972237073,20.316367415643832,12.409862418865162,-18.45474505396961,10.740225295317252,10.710629291113296,-42.22983287981567,-29.005133930267128,16.659838566850443,1.2230301685391733,3.8146555012361487,46.70955404358691,20.627342753204356,-28.04488348718604,-1.5683759708229985,13.072033409649572,-19.67794394192914,3.8181565827893547,43.508825194801545,10.590354746714633,-4.589723353662352,31.434629493724337,11.605161256538834,-24.9559431942036,11.392032963231113,28.275502752740152,-12.177382780330724,-2.109294937296463,27.476887035358306,-6.070206463031997,-12.68989909923739,35.6997580958755,24.324236029163075,-13.15303074211496,13.103174930906443,17.01664765194744,-30.827506056084147,-20.15126293312847,13.621910734635943,-16.70275709744056,-24.166224065473358,18.902636738091154,2.0675245114097898,-37.93225977297526,-12.218207145538582,-6.48136628736866,-47.769303024200845,-25.560079124308402,20.212717712052324,-4.01998816425586,-13.150798216868061,23.35227532269012,0.38464213745563214,-38.45271741483527,-2.9654206787474813,13.814715922090206,-22.009239289378613,-1.0743013223195828,38.79305023816587,9.06637755849216,-0.22484517209346833,40.71987938507025,22.084233225355767,-16.18958914291909,15.294669557717565,25.46040285661705,-16.90600023196241,-1.917072372380968,32.4735929208659,-0.8649960621399693,-11.69998963712563,28.67232636839627,10.301848060179283,-27.762519430183637,3.386654334401232,14.628455160559781,-25.7248604506107,-9.919083900733407,25.72588789839241,-5.330924050707377,-14.507682630544778,27.845263461687082,11.104684858858086,-28.183154433191625,0.0073747183078261,8.12922261978336,-34.6063050784667,-18.012785655699847,20.96672099682783,-7.162611518283487,-14.442953370196822,27.475119761319718,8.003498225219737,-31.897940360403688,-0.614585710730644,12.629427778944994,-23.48650063982972,-1.4167076544196,39.49576498959834,11.554256739003536,3.648468989515755,44.564972139302824,24.9428648729266,-17.038015266909397,8.497885472586603,16.466471276567383,-21.814598549848156,0.16255032305389427,40.96822603084395,9.304047618585502,-6.661817693467741,26.896579901601903,5.4682388511052,-32.57535026865184,-1.3187541362643032,9.033726180244699,-30.916136418048538,-11.459972726987992,27.123411660036187,-5.552481304022219,-18.873410213767016,19.692463254011294,2.4961119228300284,-32.278127060749114,0.5200454493227511,8.847957432024124,-35.80412883296036,-20.4928039151368,18.67173652347377,-7.694072253422867,-13.210711283019744,30.90420714939797,14.758162478030014,-25.488707048562613,-1.1695046702015226,3.396514068109934,-38.15704355172345,-17.106344097747396,26.787746685652245,2.275814150952151,-5.555113864787964,33.16085842025275,12.019950895955802,-28.93598739453223,-0.00703831535166799,10.200990334380027,-28.0641478052479,-4.431889313530217,40.83801155379902,14.929812255682599,5.331507569220054,41.03940933819039,12.86897123854233,-34.648944435787826,-6.518484987031901,7.698025136379944,-26.032240857360435,-3.469677518030805,32.04114946246273,-7.196492682250291,-25.033894815367937,14.650279699548658,3.5655826213269393,-24.390499003867955,12.277103334096314,21.050253948433497,-25.834162701086072,-14.131982503554626,21.821837657612093,-8.366248508718162,-21.025099397460522,14.214838801454034,-7.050563047340214,-44.44893726721972,-10.038430246124722,4.086473843140315,-36.95107382084824,-23.59218909216326,11.220530801245552,-18.654034054871644,-25.44279535591346,18.885408213016525,3.5711394799689735,-32.529977161619755,0.053716454583423,12.13167148290467,-26.078742427948768,-5.48316490683621,35.061005601035035,7.809482802466093,1.6653016740045046,44.717724562442775,27.29611696411349,-12.281020622371507,13.629468618516384,17.75214318695145,-26.8337035028566,-10.091494826285825,29.905146114435215,3.150027734653875,-5.454015134650803,33.359375207655575,13.24207419740888,-25.609269800014175,6.686351560339986,20.200540669057297,-19.3942057966411,-4.450221140313262,29.717146214041357,-2.686449669657513,-12.060814683422134,30.701497506643637,13.920909881131676,-26.25101153663924,-0.004299807841636749,6.861838281032241,-34.94820704087291,-18.406000862333187,16.903105459923715,-16.04555854977292,-27.19166848347103,13.957672737538335,0.17086370220998326,-31.96283244259563,0.7511254117968704,9.161902847440118,-32.98565244780531,-15.296673030235292,23.68360704285179,-4.846906566175143,-13.197495809400802,28.291158516781874,12.335889130027018,-20.999685372872946,15.61724423052863,28.6598492675437,-14.810725501957144,-2.5016287974218425,31.474601655413842,-0.4404090597823753,-9.06607375040678,34.793045729736036,18.872339415424026,-20.518062105354392,6.345254092292301,12.874940338473854,-29.1053423455645,-10.001546765806848,30.44475041574892,1.3951248425299987,-10.258338171784143,26.072416901261015,5.413648366220519,-31.63214609350892,1.627039604420137,15.284926535444534,-21.35083759541795,-1.4948465742666404,36.41306461193275,4.848963283489475,-8.07568477546278,28.72163097670331,8.943178047587324,-29.294531769577386,1.0223163115011786,11.235226803357772,-28.463922069787678,-9.851615259304502,27.758895102937448,-4.416733288128494,-16.611207626128632,22.529357018394855,5.079774723293012,-31.29337332000739,-1.1800061265708663,5.355469781796953,-38.40071752115836,-19.54350910309562,24.56113436448465,2.1749817734296464,-4.450188092966728,31.89200655709671,7.311859310823902,-33.90450729665034,-1.3513604332931948,14.480086346180656,-22.859400458873644,-9.888743950748061,18.782583439634074,-18.269120359764745,-30.17400415131175,12.780737029835816,-0.20209199505374542,-35.203704969943644,-4.085518740284719,7.828325331721664,-29.731322566934104,-9.541522613067793,29.947959435621406,-0.5163376853108232,-11.658895241406908,28.589837156670804,11.050529938071518,-27.68661351835388,1.0106745876828889,9.681165340999886,-31.291490461422775,-12.74865290370667,27.91230834060284,1.5848514432005842,-5.374714006414191,36.766541478215146,19.70746793074888,-19.97851854322046,7.053871923690181,16.146515000120118,-22.580274413249903,-2.4524044434385246,37.81284790750874,8.234326648630708,-4.079880909569354,32.41275006949397,10.219205645269865,-32.02123508161173,-3.4904225677401897,8.08612196413068,-29.389035074600574,-7.368931983354424,34.962134015775796,5.0007384645647335,-9.341368609020513,25.193807402404538,2.3744157051769097,-36.83946847229178,-2.921886716970185,11.801142141134093,-26.95520843396958,-10.826306163849868,24.436804073240097,-6.915844940416662,-17.123470533295674,20.571112774537887,-2.182565013645039,-43.63384130133206,-12.9767254895862,1.4991587446690793,-33.37042858204629,-13.503587967702801,22.440569578729843,-10.460698535853144,-20.64989705538606,23.126882255041416,10.50589665273048,-23.902168195233223,7.412371728879425,16.557729129090497,-27.164526857471643,-13.667679595742237,22.06161244677599,-6.939496378269464,-11.718312539483112,36.717219504357885,25.11983449716149,-12.812551683148982,12.434437679123633,17.860682504419913,-22.59029455338567,-0.943533450824626,40.72721261009355,10.406073796036235,-4.879831795347327,27.386850258319868,4.354697167069286,-33.157429328765744,1.3406186161700404,16.88842466360733,-20.335176771399414,-4.515392920565093,29.037182175354033,-3.7041149768943527,-13.180597402641126,30.08748972169905,14.551213171523592,-25.834790150267537,-1.2450017807654028,5.150337237580455,-35.017842307014895,-13.465774059862895,29.908581004777343,1.0413376884222068,-14.369593348081011,18.906987908160033,-2.3051043553175496,-38.97975178604355,-3.8338304394583673,10.973845977849667,-28.582629741607576,-11.549167839823657,28.237364253797935,1.071562942445592,-7.633141543881304,32.505813477303036,13.730683654618126,-26.024676680718485,3.1779058396686146,14.370228662655759,-24.30697158452505,-4.330630221760654,38.37259436622007,12.087165275312962,0.8850747036112279,38.47692947340397,19.840835888885973,-19.795230832046663,6.7315174108304845,12.512707184484213,-32.95525147298947,-18.060976847466172,24.182670983892006,2.022284846255925,-2.8428272574374183,39.171307344834325,19.680111389309886,-24.55216262277302,-1.6423206253086278,4.3217200548912516,-38.287174534820245,-22.6876346519567,13.665909845414603,-19.11007393545335,-32.885095667346896,7.271457450569983,-5.416659687770995,-38.739374038968016,-8.314354875672105,-0.208754562323477,-42.37756748611401,-23.832142292142127,20.489666770993992,-1.3373266986307542,-7.198446150373039,33.37835466034133,13.196786836360502,-30.89697998184397,-7.017155624901459,0.8230913923751466,-38.76630833681574,-17.3991313852382,27.255048536582763,2.0133736142030436,-7.729890372385077,30.62743836356217,9.746989359874421,-31.34800674816403,0.27283326021260734,17.51112856592829,-15.527250180111862,5.048439075243449,41.646907390020445,7.69041227414756,-5.188690153675772,37.93703328971964,27.31892747805344,-6.418387550892826,22.786975819061034,29.012325256266468,-18.467076583367117,-9.057292600056275,25.30638044736532,-3.9603274526316206,-12.769916639504943,29.006202680543645,11.55535239894852,-30.898092233229278,-6.33289632962742,2.517107292729432,-36.67742437263467,-16.459807262707887,26.622109519295186,-0.5480146082566435,-13.3645891593472,22.26231928533922,1.2053436016800454,-37.723475111476674,-3.7300210319074303,13.901707608339951,-21.82553877373457,-5.875343344174979,26.648393171942985,-9.609673758774434,-24.07613622920143,16.066513266118783,0.9123475604937141,-36.56239211344383,-8.271237926948265,1.2771811661170018,-37.84312897699231,-17.845609769109192,23.87037664605772,-4.31031657878362,-16.38114781629637,23.034380077474875,8.838668889014404,-23.362882900338747,14.937589118301123,33.42882964971051,-6.4832038838120205,2.3212729384258477,29.58619974615515,-7.536953426779817,-16.73517048353413,34.501095500550775,29.608626666548727,-5.1706889502599065,17.79379743849026,17.41368048791651,-30.796005804122416,-14.54062788108433,28.754895653625084,4.66252191662231,-4.464904790203782,33.42449327281108,12.938380834654716,-28.722538509231498,-1.2109015846570053,9.964280340823038,-28.82813367169023,-11.479887224184013,26.48701679791825,-4.568943950174262,-18.24038613824366,20.403779732957922,4.926237986364415,-31.16518873389269,0.8881623579232958,15.65384154368532,-20.567642272838867,-0.5085450480805598,41.06555367287814,12.725762053270337,-0.8319883629706173,34.796193919942375,13.77127266572355,-26.983682426847835,3.978775222833761,19.163050682515927,-18.538236382803888,-3.936952319316724,29.21394781406792,-4.496354279082336,-15.320851514802666,30.36607256534443,21.43531111651628,-13.978555862928692,11.306225077924017,16.511146660235884,-26.811739879276992,-9.925044104380854,31.916821106234,5.15109062770474,-8.21305979597985,27.165956240932815,7.797711454887166,-31.096635937040197,-1.1836899469720485,10.548846622463408,-29.23988242218845,-10.934179304829952,31.792644313614357,6.122261888523912,-5.510124285727568,31.1717939981246,12.045318476341558,-26.216353173298664,5.774193925813542,18.9810480342217,-23.961761126495006,-14.399776403087648,18.780270749499998,-11.916030644213539,-23.262989970107906,17.153155751661178,1.7716629328842455,-36.983219454561876,-9.103214264789871,1.719392020687531,-39.343769377362484,-25.091826472117926,12.805176553351707,-16.13916781618042,-28.149421612346394,12.686159120540676,-0.4643824524923854,-35.7163262156445,-1.9804311299089292,15.62287162756602,-20.776494479462485,-3.5851077278567978,36.37156268592591,8.13107162050131,-3.5740352147970404,36.949504982293256,20.802437625656477,-19.55206905364949,9.528285123792156,24.857550916884087,-11.294627187202316,4.484382662577831,37.397670889105015,0.14680881713286809,-15.979201156049088,27.197571417122987,19.133367072241104,-14.722031483717954,11.427199682384042,15.729554383756927,-31.331480330615797,-18.665409401404645,22.39354169330356,-2.0733066317968074,-12.169553057780295,27.671502590528455,11.180903738775303,-30.834710803539977,-6.979357362287702,0.6244844213128715,-42.592977657848785,-27.57833730042939,13.932796391569514,-12.404298239632586,-25.97488271040198,9.08390625407933,-11.097972708763015,-50.88177714743645,-18.369995173301582,-0.07195913121157571,-35.61281321801789,-19.475513293720976,18.07031461919258,-11.27313822068976,-22.46674167479389,20.049351088348224,8.509644327275394,-26.80975741409267,3.405815506040632,15.59796355154322,-25.316940845172063,-10.962003669846663,29.424099594909503,3.848166666171089,-7.806234475993781,30.47580408732416,13.090221913458931,-27.83132698805447,1.8932780606227055,19.05629214590178,-17.973555238704048,-4.195334617210092,31.54204960186363,-1.0745098818822107,-17.388182940943707,21.48600617822399,8.776969639742168,-25.675186537836815,7.88126107189785,24.002698669950902,-15.63030102966454,-4.224867925840643,29.273522064710274,-3.4478539425536603,-18.490960435200023,19.098898918187597,0.9680485606450127,-41.84045655831983,-15.11117642334111,1.0990485964872891,-31.75586362277853,-10.766953836704143,31.4255270879886,2.024763917586096,-15.395591114848804,20.46772763000438,5.107861879521696,-32.999998008743155,-3.199430889521892,12.16775928304994,-25.750462105843827,-11.1959821328839,26.848630384164977,-2.5097345188353195,-16.10537236825162,24.93048247269479,14.265115273197727,-19.278611947725743,14.400274296484252,31.414774866738874,-5.778040692618077,11.173409402060202,53.6461901856115,28.851463707534293,15.496049086874232,48.09780205897798,22.16255163403437,-26.449901795787078,-0.8334354288555126,18.063159739757168,-12.833803627075127,5.283879666191606,41.97732612206828,9.27510141832752,-8.367242539661689,28.70217106827738,12.797281288329902,-30.85118463413628,-9.415865608258043,-0.055195409375430216,-39.83900151473159,-23.23586609717971,19.072104158395145,-8.50985933867587,-25.269453508269425,9.80934819285915,-7.731942787417331,-47.80565587931161,-17.622164344197117,0.320486481336155,-33.06772161686459,-12.113597603820413,32.00346718592108,5.682229074511998,-9.097261255561284,28.014631555826966,13.631761474024895,-22.505972197521963,10.01570988682517,27.3227427749987,-11.036099226550537,2.324197205065575,41.859187080287505,15.804293587018872,3.460924971384183,42.646641346676745,27.051204653973926,-14.192840931528906,14.18322365036415,31.57203775488359,-5.655040659192508,6.370944173544956,41.77805600173651,9.9964871591825,-6.494908413624386,32.64080317587989,19.306406074884332,-20.619084539471537,6.556321896459082,21.194233812475257,-17.20021733011231,-3.899823395601368,33.470216289558934,4.371427986718398,-9.002895482816346,32.16239636697528,20.572575100632996,-17.972679950991783,7.994695497585017,19.777028730845604,-20.040833997992276,-4.177407555212527,40.63091690745266,19.142938271295186,8.034466491179728,46.43471715032071,28.647974744111927,-17.001981560117436,6.245592734958169,20.185586335280156,-17.04407942357964,-0.11654441997123222,43.31569945040846,17.153746860985038,0.7013871092260668,36.05998422356866,17.9163436975582,-25.862834672017648,-0.1274655356117087,15.034857096951832,-22.62712027928323,-8.99938622548822,26.72279515660748,-9.14401877233471,-32.332678808283504,2.5117412471057285,-10.45311146261744,-48.397858127271654,-20.64654238442497,-6.153828229351008,-43.96706516642971,-27.198414624329473,16.307132600495862,-10.951593196370332,-28.493076012738342,10.141326179057636,-1.493065205723882,-41.85961233420701,-18.190554247890567,-9.611254338488159,-55.52244610000036,-44.96239051165891,-3.911703433810814,-31.74918661283784,-49.58707274778514,-11.974000202950377,-23.29020526350945,-58.372723678971646,-25.169917604987205,-6.057701912006704,-43.09892215892586,-26.88217734540317,19.34640453632663,-0.1097642229429745,-9.633098650051677,30.09681671533336,13.856523170607712,-29.669441425883466,-3.844960990192787,10.886884366702938,-31.58747933416477,-26.157360519534198,6.6051715296340525,-23.21135596315244,-36.390475490739874,7.257189226042943,-2.1385676244168454,-43.11316243198206,-18.793892645275445,-3.3022217415189297,-40.05346739022008,-26.36469413214769,12.492381780102978,-17.536615233819667,-35.74615471531888,4.037568072119257,-4.311575083452958,-39.945481898686346,-10.8250000896219,3.951320895025079,-37.30935138191034,-27.369736502753923,9.375284895760895,-21.110554887535507,-37.94348221009834,3.746903474751413,-3.3292855282944878,-39.29632607603252,-12.028593017768179,1.2242816143019708,-39.64443671685602,-25.115619934636918,20.918437902231066,-1.4971984875897988,-16.827210836287094,22.357383341545823,13.922892503196863,-20.14647848497819,11.347565489498077,26.90413278296752,-17.934788013580896,-11.34869780594981,29.27467288492799,6.404168877232529,-7.045866606179222,30.89798080960294,14.691067010752871,-28.328332634430055,0.5042287936149812,19.39071291306839,-20.141924019390146,-9.927947304713532,31.051574922684317,8.614861933633366,-2.6285792151108716,36.87566660845237,20.74300655117666,-25.254520880499758,-1.8940319994274226,16.03525978536627,-19.334132658428583,-7.751314260403117,30.1340341344875,2.9640601066946886,-12.983557475210572,26.026060298808147,14.214961885914155,-28.41202281060031,-5.716515214707281,8.722008007980262,-29.19291832710482,-14.67624650155659,29.282996211652932,5.050841778544401,-11.22844554377037,26.762524073577303,14.425168348361321,-25.92476662657146,1.6873927222982132,19.69478085396142,-17.17378151068676,-1.8557192079983214,43.91680135108245,21.996186030842306,6.710613394354065,43.19409581182915,27.85456210657788,-16.569885648192955,6.101135792849686,20.306971916038755,-19.21513004263169,-6.661245343508904,37.896090643693306,16.06670912618987,-0.8604135184089303,32.757143070692855,15.134625388154742,-30.062182230646883,-3.994902874579667,17.53258178630841,-15.197324982340412,1.774094311839356,48.32627196164424,25.675916708315164,7.3535488352551335,40.48624014257787,21.135075846668922,-27.241707131634698,-2.3787832342898945,21.733375146572804,-7.064512023857306,10.86536599097313,53.60086008043416,25.305040380378998,4.326778656911707,40.893766588417336,30.865744091777977,-7.814468797013866,19.86039973687319,38.92755905534555,0.8860973435978252,9.222197628167256,47.145244074171806,21.600739349820508,8.292474843884303,52.7500074631433,46.05818703441702,4.411017143270422,26.475386344601255,40.83576328477912,-0.5949306673589909,5.833926991783079,41.652382982560326,9.833144652258177,-14.352316895670887,18.89830170726432,4.797963959323484,-38.45853977492458,-12.148245040547184,10.26789304459413,-21.607043595548966,-5.92532233399756,37.249697816309244,10.393765847133032,-11.401658539889912,22.572845752190304,10.195716939279324,-30.304277178330203,-2.9252795328248986,17.470705591602503,-20.55001585750614,-14.180944975262976,22.012939861586695,-6.657960346698008,-27.40513638968679,9.36342766657668,0.12595924981076578,-39.22826655517258,-10.861395725017845,12.528412296637294,-21.310404596064565,-9.22753066219375,34.069005740423286,11.587373194711756,-5.5290716512014,30.2780059703082,15.336646837114255,-29.109059958148862,-0.6295219336490021,27.053405343245075,-3.3222191708052478,4.9352177523231155,36.70296329095852,3.3053085821704435,-16.725763594600217,24.659375684081404,18.706259625847956,-21.655215904551014,1.7163468995680624,20.220307083683856,-14.60511662958123,-1.8443246813298817,39.64745718259848,12.448688680369916,-8.85502560263364,27.853503858658982,18.0150935452886,-23.323716977833,2.5374394993240372,21.921517252910153,-18.165388376673736,-12.437526835569058,25.20328679251564,-4.485255521687073,-29.15511174046698,4.963313692096396,-4.301537077982054,-41.69540704214918,-9.884874398836747,16.12434985118226,-18.50671692457913,-10.351452610381871,28.399773554821927,2.5551252852773665,-16.031647533783886,22.002702235863325,12.86162147492181,-27.711684989506963,-1.732670265133045,18.83912465832579,-18.514448780388975,-11.817642733988464,24.792714292941497,-4.7899891343173095,-26.678146371360445,13.312216181889482,10.755813711540931,-24.626296462903404,2.8787626360180276,21.85920573500586,-19.232836178944517,-14.087330337744786,25.457360398448994,-0.6824304182113856,-22.94496095648555,11.466095164390136,0.3855247116532894,-41.60416498228837,-17.39861369584964,0.3934626495034572,-38.496054093591695,-28.06753781749798,17.622503497579974,-1.010577732387894,-16.32675768192624,20.151194245100612,7.160653609060958,-37.45414702849547,-14.54015220166001,4.078565981353891,-35.70136030871612,-31.165037339052276,7.103779431042222,-16.532211737469254,-31.946227655692276,11.216615073840213,6.169281412513435,-37.423892846717,-18.518699615003676,-0.8146694279329978,-34.461825051743084,-18.5374093936131,29.04414390997662,3.6268315469711343,-24.960811340872453,3.2249530720377457,-8.473348129869663,-46.54896053415472,-15.77311287340083,9.047470421025865,-27.534056894560962,-21.424708825543732,16.55681154008292,-11.197681326616687,-34.137998024569,1.3097336957627839,-6.786406065010061,-45.59618049489512,-16.858659184838906,9.551655460744492,-21.214224768577587,-8.799065290499914,34.13699755537325,8.437526843765554,-17.19431303719638,12.801573754843174,-2.1560844074757473,-50.397673659027866,-31.165382189034933,-11.412235782520629,-46.75337865661262,-36.113611951709814,9.292545778635233,-11.091283422549424,-29.397907334486074,9.087077335729091,0.7898700484670425,-43.49144407369496,-21.86480827266914,-1.0170282067639267,-35.26819350946617,-22.569984464907847,24.530208949095982,4.445143498716609,-15.487091757709706,20.494930296684686,12.536144445262345,-27.95485559391556,-1.7607668183301612,22.873848197407728,-11.795329994111299,-5.721005137342646,33.67981930248972,8.664023412778015,-14.245378535974075,21.311760672894955,15.037535704866533,-23.6401802832995,4.961907399203962,31.871199039218226,-2.593347157731163,2.4472843927878483,40.11608456015797,13.01662063409443,-9.528771269234623,28.899064221496836,23.65880998444142,-18.335795740306338,3.66841285238063,24.002520686475492,-12.519157210483296,-4.2578933723468655,37.60606550754996,11.284579486505981,-15.68706701259321,16.22596529098982,8.66960350210123,-30.94406906419483,-6.177533539064708,15.861973591897694,-21.00138417378568,-15.525484862575444,25.41863280392886,2.519280410508408,-18.605437855406038,21.107394564359247,21.836460527392767,-12.729771594730815,13.851580110389419,35.89637117093708,-3.3174629923249412,-0.876313522008509,38.15020994952517,12.989437052157204,-11.78640487078101,22.33481965726337,15.18324153243449,-26.271238690278174,-1.72415222514163,23.239722872169022,-9.932030820805249,-1.5409799029708804,40.195726182698664,15.022234001437194,-10.740995679493661,21.905383503380442,13.837382618485755,-26.92157539242838,0.1580203342819857,28.77032722362823,-2.7558861653880413,3.118541949123281,39.947186103197424,9.307095166926523,-20.176148538956088,13.901235960810684,10.632701688817205,-26.69005301258484,1.7519837857967318,29.725619391242322,-5.142611093853599,-3.273851547282449,31.176849532763804,0.21061280570444652,-27.151261467594775,11.675187837056502,15.050035888697627,-16.348133469500006,13.220180167134016,36.840035115600394,-3.9075707394515042,-5.097278915415778,31.986595805678856,9.03521958145276,-9.774393807892915,33.03027667871032,34.04815069499247,-4.782562673204712,16.833675345834013,37.33000906249957,-1.2200268546588937,1.655485403154481,41.77717657518185,17.997916224401592,-6.450945326018881,29.769132716068007,26.373956772287748,-15.69324697641571,3.2419764929385266,22.295496302526583,-16.576538938703926,-13.642966493196898,25.56426515781287,-1.1122392109384016,-29.491846888992583,3.5682893615994224,-0.3860901416017324,-38.91306790673757,-13.754568125470001,10.47008624738645,-26.175469233353788,-23.41714880966596,14.701652901923712,-12.282412234853147,-39.95236442613814,-6.153734443174288,-9.947115412932497,-49.15649537552037,-24.038947381500776,2.871089210414371,-29.697571998820397,-22.31751363378727,23.16575737911255,4.512882760552333,-17.9936113693541,18.35324930287382,15.686533493739102,-23.40286481203005,3.482856222719093,32.54465438142964,-2.8951680792567984,-3.979495690251704,31.364845689090284,5.655887684122231,-16.857737907611824,24.48346707352632,24.96967233394541,-16.50271216452393,4.267122170187255,28.69286163369758,-5.264397453033286,-0.14122440279058246,39.6915125471771,12.446018843179239,-16.75620656620659,17.365991801525865,15.321113422321307,-24.22855840307117,-2.9914064111466026,17.258699735450023,-22.85797652343378,-21.139297845010457,21.129932179612954,-0.41710306627853555,-25.97508904132739,8.942608963845,6.444449312140533,-33.447750097280604,-9.971551697856356,14.225948591260087,-23.739265670672552,-20.192496724413004,26.549734434191294,10.445961972161548,-12.398517469865887,19.746686631495507,10.176127912168774,-36.10329111363366,-14.959569251520396,11.810613884859617,-21.066107249953156,-16.19621687693791,26.177481400276783,4.661825851278515,-21.083240778372783,12.578579779718403,8.954102799783884,-31.182400991354356,-5.665051625359354,25.29911714060838,-4.806081572206388,0.33358953143931114,41.57766905776957,16.24057746991047,-15.97766709476129,12.340200034032527,4.96206843052655,-39.433591165445215,-18.00940971156595,9.054017978251782,-26.006681960755433,-24.869966653683164,15.706343702956183,-7.506839681586987,-34.996579226295175,0.3709067106974331,-0.46604196808596043,-41.160612147583976,-19.63978789632519,4.30501234571587,-34.0277501776111,-34.194441710588386,6.808220437717713,-14.071024704793038,-40.06866752252111,-7.20058328018078,-11.461299353327886,-52.77369732011211,-27.6113735344665,5.21940703481549,-22.990093184458814,-17.093160195654885,26.13344624007713,4.618787362612434,-23.852167650731914,7.960521872455171,3.741591655540338,-39.23595946998357,-16.474848774854266,14.432982478661444,-16.809296379302914,-15.549700233903158,22.80020238358776,-1.278417362901795,-26.45426389135249,14.326014596436956,19.602501882186328,-18.54560512891829,1.0074598751545256,22.233466745610368,-16.195052692147364,-13.366862626118287,31.36499904350569,11.258372710920247,-17.264986911566698,12.525646663239794,4.771779316593209,-42.195057355105824,-24.438140210341754,0.8744404804809838,-33.10955917736928,-28.645076393857288,18.037626393393317,0.8642283506703361,-25.48419708042155,8.827510268316406,9.481243952788732,-28.919904207162187,-4.1701676080866115,26.853749709605808,-3.650659386066053,1.3095282850202477,45.218086796578255,23.332568014088555,-6.63750308494842,25.705130410647996,25.688779536170333,-11.53254984303585,13.363165136131613,39.98555812142191,2.0051200198440604,0.5989115142640937,43.08910060980555,25.554816059924942,1.3177111796957677,35.82152693620029,32.85789215622264,-11.246844517659595,7.987862728963496,34.93440067844657,0.3838638026943748,0.3760741165279482,40.869971780715275,18.110947829637944,-11.857619510805637,20.051270722820007,16.354891556689463,-28.88081668474547,-9.815793376014744,18.48098219428075,-14.406334619258153,-12.244383437408557,31.03073521076366,9.811372126556865,-21.298404070250097,8.642480682018938,5.741435242801405,-34.67057046942908,-7.555690102266439,31.030941199060386,6.887176692972435,10.048458754606147,45.97461139453673,15.88934894820378,-19.23152372908442,13.485628397579774,16.913247198708156,-21.94594347861409,-3.0435909916350106,21.7871808498621,-13.593452104087348,-11.72485730305824,35.11994940491539,20.258866060648437,-5.701534199790148,27.481265006789684,25.607627631677467,-19.77630693927405,-3.589496799741841,23.19395278571716,-9.835648658682938,-8.516926901004162,34.675424502500306,14.22279972397747,-16.93646927264266,12.943587744080851,9.669717212295298,-34.197693245114955,-13.778571554012865,16.935893145034292,-14.06710200174538,-12.777230505408093,28.272854107472522,4.841472027817124,-28.865199058204563,1.0556534876080512,3.3383311942911407,-31.673094980976437,-5.120845554846536,25.400807188636243,-13.453095441340736,-24.319832220912545,9.136909544147096,-13.419908199131761,-42.717690190444,-11.220801618927421,-13.6948980605051,-57.87546866126195,-37.54767674548899,-4.338842918219838,-31.27449226133039,-25.611961188178043,21.433165928537072,5.2849237321227704,-22.03922504336432,12.051246841082328,15.616659942407086,-20.034637483157788,7.061827426983527,41.69147180149758,9.835697588561779,4.986983791427944,40.03329421211856,15.860000069803366,-14.766322397310928,18.91149168893421,23.749192081273307,-12.876859159423772,8.355062045950138,35.57188654775985,-2.356195176474486,-10.620034475768554,26.215043826168582,7.620116153435951,-17.620604805171393,19.750405705402322,24.040441418973202,-17.91813536921704,-0.6613963398759264,28.17972174886219,-4.159563091936558,-5.5089029090353785,35.372262096859224,14.355461876050882,-17.27998439160793,14.145009584752989,15.146166220992017,-26.356624538946434,-7.178034074302321,21.865444465062083,-10.764406872711547,-11.496315537267233,29.92262529359624,9.143240813170564,-23.21462291192015,6.380373225304886,6.739690296695607,-33.719212659417714,-12.934952529675197,17.996846310527346,-14.066364256128516,-15.500230773928346,27.197089929530353,9.110313080250195,-22.19554063250074,7.399552981888274,6.907663247357685,-36.29708051667337,-18.090999703726286,11.165026926418696,-23.81151955168621,-28.305438985490497,13.827006624428925,-2.2038259901963713,-29.614720876849567,4.099413558687587,6.262285657914354,-35.20977745773537,-15.078931104356602,16.825802096091223,-15.268853613338191,-19.193574338220735,20.465914442101496,1.64365714923467,-27.65156173307871,4.665403680081059,6.181187311781018,-35.906786800475224,-15.933359215984652,18.832635059949368,-8.63041230206779,-9.249009176746572,32.89220917522345,15.557737287042604,-14.0295818473328,18.268125196435058,19.56910515676517,-25.633098468575078,-10.016540913756764,22.485770455628284,-4.099897394413677,-1.7590174741947529,41.4095262199425,20.609127431952317,-13.504114059091801,17.154859358081133,20.079486849811893,-21.972655094228514,-6.0208244910669535,20.96651663197572,-12.738325607182308,-12.743279121358341,33.748033299584485,17.20494884373722,-18.054811024275196,5.980585929719503,4.211067110179178,-34.92897273371302,-8.219002667527697,32.07960942647664,3.3841161504207093,-5.04562253204791,27.899456014184416,3.2059723766651356,-30.741453780050286,2.49322781344992,9.010919694273436,-32.18157808026472,-16.15429958221644,13.796219462611973,-18.146779952776306,-20.014590787576196,25.57392154089934,11.107222972373894,-19.52361012626046,11.912007031174621,16.04170953730872,-24.74887968298733,-7.528216155495269,20.718169376101784,-15.307251475960214,-21.896384357454842,20.261010212382594,6.629485698090036,-20.61020743319356,11.83286356889436,14.65420228439168,-26.783571804223726,-7.76793286564515,25.71958676993837,-4.271516795607077,-8.565253006428232,31.63482666573536,13.26304036298103,-19.57716412808413,10.376226481566082,14.603921474135563,-25.237405111656166,-6.093622457540453,25.43729161709268,-9.337397289806084,-17.74279795096765,22.128678194487758,5.670593697866586,-25.124210833630613,4.399063106536563,4.5744198093588,-38.793107475776736,-18.643737569190343,18.680327793866184,-7.595132109664192,-10.192973844870044,29.113604441339362,8.651356853074065,-25.875994509357866,2.359864040607299,5.658152935934803,-32.671997145568255,-10.277219513931568,26.095077327209168,-2.7487353933262284,-7.465777735589288,33.18902132686367,16.43096243755008,-15.384779610149177,14.590360253785112,17.70614188295174,-24.42840050531995,-6.785290172551832,25.630406879954332,-7.43400194519003,-14.510622085431267,27.648660480216112,13.513246746886065,-17.139081717628677,12.2718546912661,13.033287134163649,-31.693860571147972,-14.228630036941679,21.264212013115404,-7.5413506018434475,-13.47005524101159,25.768236889769867,8.934403154201766,-21.981606701301082,8.315941308209734,9.579257780402072,-38.12501270597542,-27.08963935017075,5.315282069814575,-19.478643653877374,-17.978785161455605,26.78353312999367,8.861331683120461,-30.080986333657762,-7.19898850850419,-5.364784634067371,-44.778198196507596,-22.519490075893486,17.30418150618787,-8.912101807869089,-14.182136663487949,26.108455710415157,9.534904740592967,-22.166373462926874,10.247867877275525,17.717480302240862,-22.083797519917955,-4.918494258842651,26.6176983883899,-7.768884439145669,-18.327405110091842,19.843352345162423,3.8505222850140814,-27.261024781351257,3.372264754886583,8.301387377426103,-33.828339992282075,-17.758602541676254,17.777939985407958,-8.608420526067185,-12.364147516308572,30.529097483496223,16.846890186960774,-15.137565199853476,14.403003260157584,19.436334304675732,-22.43683225570843,-5.600896950024701,30.08749338518202,2.182857339463137,-3.4193495403155727,36.69671471494786,18.620608370967446,-16.479882163869384,13.211235195442988,20.970598255982697,-16.334909157116094,4.732956399960216,41.07845417029917,10.064752685849372,0.2210429474652036,38.329710244982884,23.089927833526566,-5.947009114563356,28.427062686287734,36.341322471390214,-7.736641626184291,1.1823272649981806,28.605184613081363,-2.8901701866052996,-7.973252123436346,35.224120575659256,19.87615511510187,-16.594525740961906,9.956172457733476,16.626000537145433,-21.992835408558093,-3.66133064143777,31.783455907288886,1.996766879093208,-6.3315816604916435,32.287694133082475,13.040708841082031,-25.42628540904775,-0.6430481727628461,2.1847845812479614,-40.914169278939426,-25.60781162288407,8.820715171612466,-20.593107776787285,-29.90635055066653,5.402325277064975,-15.738913163703675,-50.911777197925545,-16.823984508034503,-0.98005815587372,-32.44274196326608,-9.918920300451958,28.487235051430066,1.4232424955197125,-5.27265273391993,34.47006138909203,15.814440908989239,-23.297114551994675,3.696289113352293,14.817520458563887,-17.54403041426213,7.172248792799612,46.58378053566105,14.176982212572469,-1.960399559608989,31.375513688316488,13.619310291579506,-18.32414431781577,15.98703863701747,28.491018545696342,-9.010482282447335,7.561896020140031,40.78584503574779,7.216540477551083,-7.036920355605207,27.77322534597717,9.499519156382833,-25.704861959319384,4.095477325721603,13.799268687898252,-25.325769750876255,-10.487976530169387,23.413541206975474,-6.427122955845931,-17.177353162698004,19.73204971666061,2.428894367362888,-33.17290672500757,-3.360979969852682,7.43384841884557,-32.23871134207805,-20.950145838160623,7.070528077268495,-28.29206281872092,-38.9987144418161,4.502736719126357,-4.3365423937440095,-33.24508323152319,-0.2143272529492073,10.465128286482265,-28.854771101505623,-13.299250045487131,22.058481513371866,-6.628450542100605,-14.73125324056683,27.394023972854367,16.184839564821775,-14.1750531272823,18.560647827028212,29.571651272274348,-10.74302595750224,1.7034423858707388,33.816252582547186,2.2273385155291088,-9.54297264355222,28.776324705074003,12.939075540419486,-25.117771340529195,-1.5282271363745537,3.0318748696856743,-38.27551212161879,-20.435855670478702,20.101587207247988,-6.395233327843137,-18.578295764104332,16.78857854355848,0.13508108928119,-32.48077354400953,1.3302294003007624,14.148538566165005,-24.60574002956444,-8.64204027988262,28.175944309828644,-1.0573835459772951,-13.506810647344466,22.79468686324786,5.95006053080351,-29.733230406645486,-0.9479897239020474,7.853732286204657,-33.702034892662795,-20.224734929489188,16.289792138224485,-11.226974120018033,-23.103147168341657,12.94988097790918,-3.548110109152022,-39.300343658291276,-9.744954331448568,1.7216582776827534,-38.032766387518585,-24.229300123952545,12.848193745894951,-13.994238759242133,-24.504303012427105,14.66528367977162,1.4007079732339793,-32.54964782585006,-2.781536052631342,6.801751505818321,-36.17811511384177,-25.59511401374867,9.136863125554196,-16.71153523850099,-22.822483567353107,19.455386254598025,5.718532605275767,-30.65073414864173,-2.7256332534142693,9.245074690485554,-26.62621625716403,-8.909338878958502,28.181080194005958,-2.5905691697006183,-18.191738552291966,17.075992303425224,0.3822878619803838,-37.72909955062885,-9.73912804134677,3.5758180404272477,-32.62790700817588,-15.04266048933869,25.858636268506444,2.048816430764141,-6.028909089557095,34.81131748390784,19.400448407241452,-20.604316337677716,5.390474122299558,18.269229889874584,-16.6394651874462,1.103010550324388,38.093715358621445,8.934305796842608,-2.3673322930841936,37.438236334327506,23.502357068655435,-12.775846804073762,16.394823012410466,30.04731701384411,-6.937045144952226,6.319976165971013,39.07785179156797,7.835551296581995,-3.7164452746769356,38.15841974283242,26.584621299566415,-12.345202243134553,9.683947826140335,16.741868516141288,-24.264469599934806,-10.497619457246707,27.89573272980056,2.074007345822558,-8.392159482976346,31.118338160617878,15.585367248214556,-25.933530235843975,-2.9466998631468826,8.07130231914264,-26.56464805375785,-7.014973607075687,31.39683226828502,-0.6085599050044763,-19.965859737238066,12.730603678938685,-1.7381497227984113,-34.70128440041841,-3.1333228978052574,10.851111155683022,-27.811727878379656,-14.861577015682972,23.059858602994296,-2.390041189004684,-14.723417812494162,21.809013657545766,6.142014459474883,-31.89018180451287,-2.134418913589112,14.875583845035115,-22.731352198226716,-13.704921815996252,17.297837110658755,-14.607439124064063,-27.709939262714123,14.638926308424143,5.953009626072795,-28.495661394667216,0.731697650713091,16.63690913806235,-17.2877362078761,-1.320997330579484,32.85077848929336,-1.137262745920097,-17.89056814627489,21.962115948146433,13.496582157891893,-19.7129940803689,7.190160230487521,17.220017391443072,-21.263242974338787,-4.364109405109202,36.6238141880479,8.93638582055432,-8.976102326924,24.84568725415717,11.539894212014241,-22.54168259383452,9.853472855309882,28.815178848380754,-6.180128741123134,7.005860988931918,43.41757264189092,14.452236856285142,-0.8174435493762624,37.92937446258576,27.59946792121682,-8.307809751026422,17.79494235051935,28.22751876600061,-13.907512576998375,-4.726113454954431,30.17924435110204,1.9646935005466553,-12.553835913845251,23.507171342227473,7.62325655009335,-34.633858501047676,-13.771253630003788,-3.903720688922861,-41.35031494102372,-25.145864662433684,17.002390050875256,-6.5554586774711865,-19.820068365649774,18.210718364188715,6.842672912930068,-29.958394337329445,-3.0355024789168112,11.638185641633262,-24.28335734574808,-8.221416201765528,32.077024046318215,3.394615400939351,-16.75531009282571,13.823606552675328,-4.1640690582132525,-42.96040626086734,-13.41882372553626,4.110989348318804,-32.01187245815643,-20.182306135333036,15.141157621021152,-13.543553685684355,-27.63379028257573,12.314177878112577,3.2966969416259975,-31.443875290911265,-1.8612397711945547,17.575688125219184,-14.31782570586608,1.004225540232346,38.82208022896345,10.215395688485835,-7.583071420359507,27.548386903724086,14.788107227218083,-22.201846396408687,6.674372749285155,24.499230592400846,-11.944771872157173,-2.4452281205578625,30.629915598334073,0.5881402012165928,-13.262696790137586,29.12427299453607,21.192340404303486,-16.650527656922304,7.181544936999648,19.595797348312598,-18.680637195209172,-5.991341115487552,32.350143989702744,3.933855059349403,-15.460213700236746,18.093889772548813,5.058884824725645,-32.903638721011305,-6.800337873528932,8.068286550884531,-30.276301477345427,-19.986395198953666,17.549781943133112,-9.412284913799285,-27.393756325032818,7.469657757702567,-3.8671454856665513,-39.7620364782316,-10.414697128301684,8.506145752441343,-26.190591009248458,-12.369269819030992,28.16605370860993,2.9384864973126597,-13.0242869116908,24.032862695562397,13.03875715322207,-24.661267533930307,-0.22876973446996018,11.022059342180098,-29.005521064960135,-14.795608605656756,30.646668616513423,12.182771113473365,0.10311194035666604,35.05847579577176,19.997160557235418,-17.80723161791816,12.055994717865168,31.074257472883886,-6.198063215715788,1.3978467163245494,36.415292800281684,11.964890440568327,1.44977194781081,43.286866345476135,31.86958776389602,-12.577148876054954,5.641183111514691,17.8236515333771,-17.85940943022199,-2.4092714368087336,39.33829748664816,12.955129581592518,-6.666838543057483,27.221750564577604,14.96642285265629,-23.309532964682084,2.9793473331673894,18.725780464596554,-19.84240489592227,-9.775013718731358,29.029173160493116,3.0796081581461774,-16.134142359128173,15.2891202210778,-1.0498672872812964,-42.52451979667904,-16.229849014227604,4.180296856983943,-29.0322807016018,-17.72095703083294,20.464533859981536,-4.164909781513959,-18.99664904709906,19.83945585620639,9.918815568718117,-30.559368225601595,-7.183057195346224,9.090383770808813,-28.88112197494878,-22.196545489486653,10.954442337948027,-19.43880088966432,-37.55882686067229,2.5424477536887373,-4.154957460250214,-42.061092744050775,-16.380996899825174,4.272821626015525,-24.470475173057345,-4.621561868981086,39.7806815720041,12.948039390532971,-11.334385154103732,16.16270547144523,-2.235451792219971,-47.02808423410909,-25.598010203257232,-9.671569503948895,-45.88047646930162,-35.276704580189076,3.8727569287556047,-21.679377994413425,-41.39445243933875,-7.677904648065429,-18.91210206948594,-57.24225853844164,-28.246341692291836,-2.839184340038879,-31.893834439156475,-18.493775480782812,20.4846468721001,-6.411475541612315,-25.163974027644503,12.93595604843038,6.49471032661242,-28.682586991562037,-0.2356059192180986,19.74723371183475,-15.355456598254603,-4.51984543261414,35.503729286577006,12.619743794024176,-1.857488388427054,37.645642024615626,29.759896746889073,-9.590441627267124,13.501476445005043,31.677160212100006,-0.9426168130421715,13.623874222814482,56.99706769653905,33.19019478177245,9.945612060867184,37.49643563935172,21.652037058915703,-19.34848789158969,6.792200246593609,27.27760279416931,-8.712187064378998,-1.3533918417822939,35.73926974152526,10.239193252054626,-7.772271826031675,28.462915207275326,17.241450373505348,-25.743409254333038,-5.899211111972747,7.531976700861026,-31.19467872879644,-19.817395568014383,25.544614069979698,8.929521229653485,-2.980383446428343,35.782338447907335,26.316342096012605,-14.812463575826195,6.810734666679567,23.310320135550672,-13.255140014600215,-3.2195441976951837,39.62592686769057,20.053008827424623,3.8832865201888773,39.33388049497459,27.3658413308219,-17.39205438726646,1.4374764489639258,17.09654499471199,-20.146201257301072,-11.56692133721263,27.604232990746105,1.666248783256954,-19.59832097872143,15.462858738192438,7.9758429641992965,-27.534240417492455,2.528677093606724,26.422994656208882,-6.242126063475812,4.944632271002325,44.29296670613862,15.766926219314994,-10.72631730291364,17.02082463499822,3.3049372114083067,-34.96336844198611,-4.863352212986484,20.391871807975264,-12.77263552860292,-5.355237435382202,32.17776958547414,8.310885028175383,-9.075216172024035,28.04905356440281,18.97862679157158,-22.98732635825106,-0.7789461205982704,19.309317938728825,-14.619418209824817,-4.995085022575626,33.472741691353164,4.367151526043877,-21.09752080490265,13.2270199664903,8.979904486844719,-23.527224832133868,6.795255148266357,27.22150475558984,-13.663640195936317,-10.848246397312757,28.11084275698026,7.439300066536436,-9.664275157987614,24.495842079672848,11.658224408210545,-32.3804845754541,-9.719190706770117,12.688760283576702,-18.87535625705747,-7.795853648852024,34.4628400752233,13.271252850586638,-6.317265383833867,26.265854190454426,14.342743492274538,-28.121519570020183,-5.423090166905599,13.564911107050508,-25.383074300779626,-21.29128815188323,19.151054747735976,1.327037669118651,-12.400034286465887,22.71082090121955,4.144045806977644,-49.77143567972044,-32.12876730756227,-6.447096968920546,-31.272638115189825,-17.264144739461994,19.79439517634652,-10.720208371832133,-33.663770544841135,6.7683977877638135,8.769178062782075,-22.95170252857813,3.6028016793760003,23.60261447806067,-13.6612195760314,-9.93669381488886,24.973952908616507,-2.188411985985095,-23.672396489549218,13.998320025300174,11.296576084077493,-24.42868483915275,0.9922703885922921,22.24736864664086,-13.252366089772504,-6.136690018312661,34.6703341080535,13.170367570070002,-5.455979036825024,30.65729009935824,21.60106160215965,-21.132437642069238,1.0477030043039655,22.098009727304724,-13.124220885722947,-7.661143715908972,28.12123780075199,1.2516969636379969,-19.1064332349472,19.062231643482978,13.045218121490457,-30.660340811438708,-15.508102689717148,-2.158221842669734,-40.20445531623979,-31.680428543462398,11.011185168272313,-11.864889334844554,-35.7152951280226,-2.7407344707830426,-8.417904191102608,-44.957139268749536,-18.274945700097874,4.3925566575814825,-31.807430813261618,-25.54972329196301,17.007070584391094,-1.8229005260994224,-19.868086889758906,15.212703457775067,5.415765138352949,-37.258311137704546,-13.83873491891686,9.159137256900019,-26.02041136485109,-22.06988341131875,15.137841134887577,-6.961150845029408,-22.771192666154338,19.411748147227847,17.744899712377517,-21.86593912687421,-1.9800771794067415,16.276323384014763,-20.567418321962215,-14.755772237334565,26.282937386662002,4.91973421785422,-17.162641527655868,15.465847593530363,7.046592933519472,-34.21008027727519,-11.19243032142824,12.250728916441876,-21.005373776288344,-13.599013793053006,28.35897539441811,6.634757402340767,-17.56432427905261,12.315364852864915,1.7074014559209374,-39.82473306057193,-14.5949239103794,11.72717294921753,-19.987197958575496,-12.786927562487058,28.1074768794741,6.897807493979236,-14.189755742085724,18.827453351038315,8.428616578182261,-37.19848671601622,-19.16796533846439,1.6122466943604286,-30.083510837742494,-18.189534149684178,28.13282987883225,8.293901595056138,-16.837973282331568,11.678585908994382,1.7109563115545807,-37.097745172052186,-7.712644386412714,22.370345482986963,-9.253318233514431,-6.451098321251294,27.516797313891736,-0.56568300065722,-24.39198449461336,12.416840796867938,9.058222779799543,-30.159381571577654,-6.961282392653418,17.17512554910763,-14.09256194131234,-4.819467160505209,36.70646811268829,12.630091533075316,-12.734330844133181,20.074519761411175,15.862118625688355,-21.00081861741851,4.064759606083491,29.36671836553433,-1.952190995518368,3.9544671306976165,41.13450242885257,13.40497021124029,-17.276485895196604,10.722083843106697,6.645643216432184,-25.882391433480024,4.788097297259508,32.44381226231427,-2.7981571941805328,-1.2107812720782167,38.25900879940643,19.58891181808687,1.7452635441220092,38.54043515844474,30.029748611848834,-18.079146045823897,-3.7945217891724212,13.737667721962556,-23.52778003462263,-19.215721571181884,21.129148006261723,-1.5677905375766983,-25.36058389389907,9.84755306016536,7.819801927101141,-29.877747532072732,-7.288085457994184,16.378060523802365,-15.319669067941254,-5.942179171422053,39.522718095813104,19.134916907093636,-10.022172099902416,14.46364241703487,3.4778033956813914,-36.991926800532504,-10.015604666838573,20.610869284794944,-9.75503222289504,-7.249495815502167,27.207931442381913,-1.5464762207803062,-29.272935298696886,6.357777612228759,7.605115499169651,-26.726968032501276,-1.7675617493341402,20.85123279487454,-16.480983522181866,-13.851335543296408,27.450221714298497,7.9009076231174955,-14.279479620625004,18.814906327029576,11.540858238708989,-30.844923267881256,-7.847645430249758,20.52961234215504,-8.479364419478102,-1.8702911041225878,38.0737504394665,13.538578410519664,-15.099459494900984,15.335465505076417,10.312172225772619,-30.5421673498089,-8.206800028212706,19.54741782656607,-10.769453149649975,-5.615947656535699,35.26367984250772,13.816965615369107,-11.456950722272357,20.933031978256054,15.776796949186542,-26.26409408119001,-6.480048452667898,17.051992062370825,-15.982327427349205,-10.691402965572328,31.297291322834035,11.854321142194404,-11.508814098260865,19.94061046597998,11.878608775868178,-32.20959050059544,-11.437078967504391,17.91991914255265,-7.579991679309899,0.7689864596227256,40.080165458551306,13.96536588616183,-17.3736897974793,10.461448792439098,5.196418864062657,-34.32222716940734,-11.429063808986491,15.415052474319488,-16.76305639425643,-13.46411292838309,26.527317702990164,5.038903578382264,-19.49165223267432,15.294864943523677,13.92715704868862,-24.035521592497272,-0.4458419171856285,24.806580459518162,-10.209927702845878,-8.219388235539622,31.911160335697858,10.644668755087297,-15.692771729138375,13.742263212731055,5.777781961930893,-36.99006893626929,-15.031704002043872,12.24941015640335,-20.414606875824074,-19.39990764545575,18.600284788425355,-3.4242618757515313,-28.385699529746066,6.810115452282119,7.0239414186932,-30.970028067100042,-7.924829498454187,19.297847629430812,-14.336248806943034,-13.560740437567201,25.574481151651355,2.7009564428210844,-26.546895708334326,2.8120902612035756,-2.1764334000606755,-41.972643069095675,-15.631151503371209,18.811204786013754,-6.1721611908350305,1.008759924148161,42.22607426684529,19.95374068301147,-7.460307907596314,24.95062055493601,24.091757569257943,-13.00494636302243,11.791114546093887,42.83400038217985,15.151161552790363,19.66922860421731,58.09194004503036,31.14472327490397,-4.597457128122169,19.901661696094948,15.620757101918949,-21.227485537089954,5.552543518765457,36.60798614021721,3.690613155679017,0.9625545056862963,36.10610832015152,12.741703535085987,-14.54482054468438,15.183480406480932,5.282265216694478,-45.434744672468824,-31.08287913322875,-3.6920755919840875,-30.239536181659496,-22.76576120645053,17.065778545200637,-9.164144690933927,-40.68750772320388,-10.306593862888505,-12.93768870544977,-53.9798434088252,-33.9135675807794,-6.388478738086931,-36.411997737633,-32.90967266232435,6.068996643117316,-19.11129717988583,-51.546980338526225,-23.205768010645656,-26.745377777116136,-66.51253737121941,-41.05714597615614,-5.409754630374481,-29.71446249220847,-23.79655158571346,17.650276328607426,-3.7877088839575705,-32.07864266141829,-0.47923973288993693,-3.2089438900366583,-44.93920894931271,-22.958153636629216,9.738344425772677,-15.966575172220761,-12.117111516045279,25.3472851306988,2.1118368753251886,-22.947704509082108,15.434659930306072,20.844053560923363,-16.902103438354047,-0.6900796039293642,19.54797219746221,-17.487122704885877,-17.912162346707525,24.159215895253713,8.099609871935266,-15.349010739493515,19.188785523896616,18.678110760112954,-24.00334422668406,-6.5711038593168745,22.213924077017534,-4.135707442200726,3.4502131080966185,47.36700790075059,24.380568971264083,-11.976640591405523,10.746206734139161,5.253818517084532,-34.27985837626706,-10.415384523123848,21.099876378829293,-8.385093850099725,-7.46960477796388,30.448528816407286,6.745629755677715,-24.306388314726444,6.848493488147906,9.802465272576413,-25.105290229724037,-1.8016200884982503,27.399204263836726,-3.4500148347745565,-1.2429682726168494,42.83139591968406,26.81074315510297,-1.8913329866724649,24.96954118002212,20.06789868811024,-22.27082981536344,-1.4119196396607272,29.82226666194752,-0.6121233779379338,-2.2415221930901,36.186491635791334,16.65396229537759,-9.448649457330443,24.82477230012022,26.127883060260032,-13.377289257685883,8.689665436276902,41.14503162301385,12.811385204217789,11.681379876432729,45.733338898975674,18.88257004583196,-13.678293037603318,16.580106110557004,16.646230783881386,-23.86640449482089,-5.738001587357351,21.923256290239813,-7.729455163373309,-5.088635973822939,36.26845154569832,15.135359165404239,-17.143947113039513,11.074381550986011,11.414723091553657,-25.36110505714012,-0.7861994167968618,31.76872326140999,1.1917196069437352,0.36501630345494807,41.45301477779493,23.983177514761643,-3.0978642149703894,28.168303100671814,26.46794225872269,-15.497867666413793,5.043955441762199,36.70505670294444,7.502498075781002,6.8567720348672045,44.698735112286,22.958210857121742,-6.530028722391456,25.101663175486795,26.06294550339155,-15.100197550091567,1.17004952051842,27.455253427616537,-3.673868500110224,-2.165816544563854,41.247514986336654,23.81121568743507,-8.100861687222372,16.71901482953548,11.970278374916758,-31.14201601619147,-11.637026290972587,20.36856732153038,-8.782574639588919,-10.56368796979753,27.450468401427706,5.569240455828911,-27.127488519073232,0.842679408848003,-0.026642777344967783,-41.11301378655392,-21.63261679903107,9.839651880030146,-17.769026377757065,-15.386517220322544,27.331943647004167,9.504356659309016,-19.808172230750078,10.94931644507686,13.130552823744976,-25.14620025439659,-5.282996671498832,23.844516210001622,-8.05544450308259,-10.397409767201488,30.784788218041413,14.710339536304662,-13.91005623998085,15.32965871055578,14.812755516860145,-27.1668134592204,-9.674532150858122,19.429290449081872,-13.266438398454682,-18.655577277399264,18.36025571487578,-1.4286265575232093,-30.81661185360421,0.6936161835529653,2.6350804878808525,-37.26070072063253,-17.041578021875903,15.395910105681025,-12.926243612224683,-13.766334436854889,25.110371533294067,4.134065734589036,-27.086637859444778,4.726293129880613,10.57985900987544,-25.011488829568147,-4.768644358970171,23.934002137869115,-9.458688581148966,-14.900563154952305,23.19753806117683,4.571385208178935,-26.27981045217518,3.3068969954507708,6.181113266066901,-33.32664844574113,-15.963022700786398,12.887990350619344,-18.928744291867048,-22.49862863795736,16.704760354306188,-3.0017041170863195,-35.43065925634432,-6.2701052752483815,-2.377452741566501,-37.70886468892216,-14.30435416327485,17.650231818336458,-15.169296133410024,-22.122768287724522,13.478374379248711,-6.467997521633654,-35.492878210515336,-3.7280891945701775,-1.194023414513742,-41.517729321211895,-22.247423511029428,12.577269215505227,-11.536136299798102,-10.915778395268665,27.440236191050186,4.155739722428109,-32.8132114978965,-6.6365175601871265,-3.7788620395513397,-42.0994547018531,-23.235625238351417,7.21790873956411,-24.674144751516444,-30.156956068687172,9.31254522706799,-5.502684712394402,-31.374896298383867,2.0554289377293387,4.726091455307496,-38.61409996277877,-23.95386469780172,7.488202543326016,-17.550601326841825,-15.464100671735853,26.2716892558619,8.815022220243131,-20.759650419348223,11.1991156584054,17.17981444076311,-20.6072737347964,-4.34893953949987,23.080616790004928,-9.005904170714071,-13.393487579590888,25.67712053426794,7.849003112905873,-23.15746216300068,7.276285498193868,13.260615746825373,-22.41465139786512,-0.8528075886126292,32.15352760744957,1.1393181565038901,-5.818298639801605,29.955132369467275,8.663396106871817,-25.337081575598738,1.8057934851661166,2.296085309746446,-39.60236610012795,-22.774530863205435,7.7505686606911794,-21.806392010347157,-24.074704082496233,16.45767995118422,-0.6708280535777664,-32.05991110642968,-4.762396348914075,-3.49690752840907,-42.92631175069926,-23.474151825697817,10.856341079682252,-15.332263281050025,-18.300104380660564,19.445612952544806,0.2616718454985527,-32.05315484573114,-2.08741361670684,5.843519092837133,-26.733519181127747,-2.2129112086253713,34.12069894854248,5.226179865387749,-2.9530264061026217,30.150496633592734,8.05183035573094,-23.79008419538105,8.853596998668149,16.493539511850035,-21.50156760423949,-5.279943864816891,23.690538008324328,-7.128929162389301,-10.47402196700647,30.763948354836955,15.853232238106003,-13.037422505067248,17.488536369724898,21.101016299299975,-19.9782406964011,-4.627405691239295,27.479426744885767,2.3575364981890186,3.3105590993124228,45.800973638619254,27.199645482590164,-10.303901810966211,13.669199624197931,18.104518432637047,-17.042434438641635,5.021914343472712,39.00309086683244,6.69397024170825,-3.7324937106227516,31.836770621439072,12.875257985775672,-21.67111599524188,4.712271302842449,9.45870188664027,-25.27832791546071,-0.5536631374214238,38.00666112692375,11.20903819869069,5.6332955092595745,45.40448692684959,32.578863325057824,4.899184979667625,33.85522626869565,34.844240334191795,-8.496608126347684,6.789434631083063,40.395000031676844,13.840749286925387,9.541553093339104,47.874668800628974,28.96929008820394,-7.723215922836658,14.163505204840854,11.538949720736689,-33.50588956798492,-16.805813203582893,22.215975338257895,1.9592961938754812,2.4327042860429313,43.146764146233124,23.423626019253945,-14.11535241328634,11.219519625715693,14.543364968961349,-27.146067470928116,-12.761065630087813,18.694063469807926,-10.418507297651134,-17.505044737494266,16.37860189828522,-9.403274188065486,-52.16448420111969,-29.370584930709626,-20.98434310818327,-50.62146130481933,-24.28270998975387,14.20272534764624,-14.2655524850987,-24.161821172973305,11.923255525872221,-2.4559815573202783,-29.477013297489627,5.836358906903946,16.312338139344334,-23.65822878854368,-11.394148570192483,19.71747106895815,-6.759787463532403,-7.957836335123864,37.136644072182754,24.749755768992113,-7.649177902817618,20.460735937365314,26.976355723199806,-11.390995061539009,4.957239634364084,36.92001934836122,6.588172366318586,-1.593411794010965,35.9639494060403,19.359022476182425,-13.420230476372824,14.814068383497332,20.790451756894807,-18.00505556516454,-1.959228770986,29.784938712228193,-2.3738760938433465,-15.821057565645367,15.661147011377167,-5.234383127777125,-41.622054728370124,-15.474912987007825,-8.728260154731553,-45.884795476659214,-26.9519375140991,10.441838250150765,-16.06594329102867,-25.771392561552723,8.579713650315679,-9.339374826068807,-40.562563000562164,-6.496394161628647,7.774350171368171,-24.618032117112364,-5.041040435221046,28.47680687484438,-2.240746030118153,-12.608746533581513,23.245649332471714,7.179702132470998,-23.191394589744682,9.393394686021363,22.00656624072163,-10.807114573900986,8.612637320539463,43.52300171623453,15.403647156985665,6.378411121874199,42.74357200448945,24.955912914525975,-11.9624793726458,12.122872283616436,16.308481778533356,-25.23525177584463,-10.929812329446182,24.811473148751297,0.8402434058133359,-2.2744775203212777,39.30575305227952,22.219806561048387,-17.111712638374307,5.136342393916905,8.898003323125998,-31.378341576756263,-15.853600146532292,17.77380701660572,-10.676588142899519,-17.582486786178393,23.15952642239974,10.234150353319876,-22.19718745550905,5.0301769197532415,11.52411247663753,-26.802459688237423,-8.856927504250706,29.201111581708677,4.060851188699578,-5.630454964709859,27.42748400444811,6.413200024100849,-30.87743605190204,-2.72714432988138,7.961071499868186,-28.80387962441013,-12.977246817457798,21.603282260221416,-7.085851028941615,-18.269836783497464,15.500897639207462,-5.8975656561329775,-44.48659366518361,-15.282087206084348,-0.638220220152848,-31.742892678283283,-10.978833485813865,24.736543153197076,-6.334745016534427,-20.86649679804976,11.172627671523472,-8.264420335960114,-43.44770939344589,-14.059188265088041,-3.3278470697211002,-42.137371486574786,-32.15693359489263,-5.003123585867925,-38.348090847362414,-49.33162127069012,-8.171254551710412,-16.31831313797302,-44.11395086187653,-11.356748204204285,1.999734119269347,-32.740873561555276,-14.23152861650996,25.50804036532741,3.2451893446493933,-2.0329590155667274,38.856189232095176,25.37189917121524,-9.987052082794378,15.133908496763901,21.127448898797923,-19.519625859770372,-4.581879030541344,33.45835793960002,11.253762646652692,6.212634266082682,44.92512211815159,27.696346368297643,-10.204697112544428,15.683049212342233,26.844756797043324,-7.699321055240899,8.93497677988889,43.750634902163306,14.911973456164898,1.4276974677704142,33.32145698781121,11.008226829315891,-32.92221767195019,-12.780713943103354,-5.415489739100006,-42.019450401354774,-24.930207263875474,11.766965402414295,-15.357886081001496,-25.457642207523026,12.534948098851812,-1.5141758350104038,-35.132373683147804,-5.402304403871971,7.382571496302784,-28.063844185141164,-12.665196371512845,21.637042350601444,-6.195002213221727,-15.396073223655712,23.607218529205053,9.748401713538877,-26.053104540374633,-1.0427891083987149,7.090244583782621,-31.469713950309526,-16.4897099028086,22.180569780045737,1.154316306538547,-3.417307500572884,37.57941768399556,23.257502296774277,-15.100380874171254,9.181975412063817,19.633690032240953,-17.12656423782351,-3.015247769452973,31.06910247174979,1.8315172860963536,-9.915734217881816,29.25572472880002,17.22840191504751,-19.580069823002717,-0.3251219088261337,-2.530084837311406,-52.17178397481691,-42.227377536972924,-0.1196034545174971,-13.216560505587308,-11.84569740934083,28.577909857500572,8.733525472513902,-34.683506112085524,-11.24164419985946,4.037602894747948,-24.356938023655992,-3.27966560589725,34.69055790125945,6.998129307672746,-5.518728470521152,32.14819441816073,18.54810530903106,-20.78660982670047,-0.5111092170293912,7.076595588377213,-28.091600084448586,-6.412566979610663,39.84324647671954,20.053260292735466,9.276091982098448,43.94295026390069,27.72368482518133,-8.938119617708175,17.92470101247637,29.205919853236608,-8.941327660438496,3.8284843351034805,39.531001687788596,14.482354877283317,5.607289666327084,44.1039305641246,28.498501316203154,-12.110214224445112,9.282282083478023,18.166912398653142,-19.51400281961652,-7.08306226512425,26.212475518872164,-3.53898752950834,-19.317437013356297,14.002382012807171,-1.8599833088756483,-40.27895471932755,-16.102544542372527,-3.051969120944234,-36.21597736546361,-19.756238961114754,17.169482561574902,-9.706475649071606,-21.564717391391063,18.09067815968752,9.801231889531877,-20.136784089741447,10.173022088920966,21.500132008802325,-18.984551391840352,-8.814925643325601,25.872925956136296,1.0967018503089818,-8.204088859759857,29.390024224523252,15.369318567173115,-20.401686926656044,6.78400958647315,19.758093089355846,-17.521578021778602,-6.8625301654611,27.54589289685991,4.492769285618824,-0.5213266363063469,43.98197277298233,35.61391823554317,0.41254931826884267,26.008891124037618,38.46618820972237,1.0536989161440786,10.423167555660322,38.46290915410284,1.261550758370067,-20.020194768015894,14.068859237841124,3.13614603533531,-29.78690550543291,-2.8606840200828128,6.247860292182535,-35.82260438029609,-26.83331408836144,7.24219926651417,-19.091512030239404,-30.450409974891677,7.554477310207659,-4.138897688433504,-38.988949435099364,-12.474191129657813,-0.42420933641366004,-38.4635277101594,-26.654935568961903,11.110766596475628,-10.784679041943132,-19.986993117006158,17.483676528109584,1.8218052991783615,-40.89182857050657,-20.2267776271599,-5.994153201908061,-35.24213366756248,-13.101838220767558,30.59430074170953,5.969751204485947,-11.616733336799953,19.35048394450748,4.474935164029091,-28.875202951689772,4.346200722420349,24.83704685510458,-8.62528989556812,1.7929714401312893,33.23443098831451,3.958039561798767,-8.872041801699652,29.900191187549886,18.795881126397255,-18.391805764623086,5.710436647233019,19.647611764234284,-14.089086251780182,-1.2723363640033227,31.343522458834634,-1.0323537730794392,-21.219619695812383,12.547071496657901,3.1063445286439073,-29.079110921397703,-1.3625628329620696,11.094134406639306,-28.945235754713885,-19.925459665315408,17.115940688144143,-4.820491508760091,-14.171942708420705,24.421164380247752,10.025027851685142,-32.27661498613729,-11.02658771874941,2.811896610054169,-29.701921398861984,-12.11198563538436,28.81505013893655,4.110730664961686,-11.169479488082455,24.225413291843203,12.763836645840907,-23.254026837483742,2.4735436568158953,17.62708279605598,-16.629753079533327,-3.5506790099111996,33.13629287303339,5.916188046407841,-11.84129451412571,21.16027234834513,7.42135777023198,-31.996878326336788,-9.141838947439183,5.9408570803824,-25.309107907320993,-5.6596469411357475,38.81696522655124,15.21268260696877,-4.510475410187558,23.369272781744662,4.272234818169521,-36.9732009839897,-12.323629333480694,2.6867397463830205,-33.985386379739516,-23.79877248966584,11.843013121738407,-12.942667290147408,-23.867019362844847,17.76889112972958,10.849931984509167,-25.00432242963649,-1.8772678392375255,11.09448100598253,-24.282543001293114,-10.643463239509629,29.452234066476663,6.171890066048052,-10.014030417885087,24.28490999754856,13.976576700206763,-21.550231198309397,3.8880991002669276,18.524018369295458,-18.711999809259375,-8.175618316377726,31.577688026361283,11.281731110430893,-0.5885835995787027,34.69681875700362,18.87839417650878,-24.50073741003117,-2.998559051716299,13.783768809285444,-16.348765611794974,1.3691755970961843,42.438287099709896,17.121443694816293,-2.0047298975374868,28.888460873193196,15.246863750191627,-22.594843330371447,0.33622052097681987,11.773048669798843,-29.053721164188914,-23.21031892320432,12.677993495000388,-7.7110468513277635,-16.601161334392607,23.91619808014905,15.11275474306239,-23.49849296355727,-1.644156916938238,14.019346886639388,-17.30299059376836,-1.0545930510443675,39.189132749531375,12.464818074844374,-9.745183988374942,18.48702437128867,3.7755904929617046,-32.32101151594733,-2.1274186980049734,20.776197615100873,-8.84385930612268,3.6733584935363,36.69627158617599,3.9780921667575697,-17.94577851731446,16.694511653565925,10.417928904439492,-20.528036376441868,6.979114058878041,20.72240857695456,-18.631687888077636,-11.421976647090611,23.702589439764303,-2.4842187151319983,-20.980343154565798,11.7688177446499,0.22054499858188592,-37.77266263414098,-15.070480588496917,-2.3147113047232684,-41.822841676940364,-32.67264983651357,9.266054637902563,-8.018512351444606,-19.24777825835961,17.137373371293727,4.848621027062007,-35.02834443236467,-10.56972229057754,9.088321988072437,-20.576606507765092,-4.354170862191591,37.21998991253346,13.6761645051105,-6.414611746214806,21.56295606661187,6.3323067960418165,-30.465267028085403,-2.6038236667434838,17.728474572323872,-13.56039288144354,-0.8836337852815266,37.35928579114174,12.840005234401247,-5.1277910509145626,28.27421155935984,18.48218257855864,-16.72730600210842,9.17266428573215,23.991265136367332,-16.103110744724777,-10.43119356293976,25.82244976916212,3.067592686237141,-9.676486851403512,30.079598869682734,22.92709079785218,-14.251686769259274,7.747995873509449,20.57598984138886,-16.54006376035153,-4.999657706650286,35.13297014470213,11.684947977948035,-7.1159606588434166,23.15276028667385,7.466378269651429,-35.265998198389255,-15.986269695805778,-3.665983557325275,-41.47918923366374,-31.638556214100014,8.910313172188209,-10.94575441163358,-24.727176603670276,12.590662847739235,6.318660494696761,-25.460402437785664,7.53921442474407,33.43632375546194,0.2647803043716621,2.242767567122341,27.444718252372027,-6.5273727052920805,-25.486221841035075,14.626122099447894,10.611733303542456,-24.95449335991549,-1.182564062818967,16.39235916155508,-15.047196715700524,-0.4323944588458257,39.08369836034389,12.91009474042272,-6.647308764246642,28.281260138649166,21.612602225224496,-10.495856509005796,19.900295672444837,41.445537729034974,6.7227442678309615,12.346970943188339,44.308760010347214,14.709846070542705,-7.8079168054290395,22.86689548658331,10.00079327498743,-31.870084970756434,-11.875582344546316,2.58039492937163,-36.344425546127624,-31.499732376718583,4.429049643499651,-18.047905868208076,-31.750901323901942,7.338652287605072,0.1729858311951844,-36.66177870965009,-10.932545054370532,7.772196206822928,-27.91930227114025,-20.175564473255086,16.37155022920306,-7.5154765380022255,-24.07691241123934,10.141140945508946,-1.713993980285382,-40.66055698732106,-13.568324189075142,10.812430430576738,-18.519407394634445,-9.420190097421045,24.3309043890527,-2.8085973690341213,-21.137939304832614,14.934261817552791,6.511414514261679,-33.96013503703658,-14.497085555942782,1.6856781117575452,-30.684203453693065,-17.047999869610614,24.69332129989315,1.3923306077481747,-19.18245490053448,12.175587248917772,0.65453839945339,-37.93265383981418,-12.771475176313682,7.0178519896272995,-26.67743593198584,-17.685702842012077,18.77023604477698,-6.435385658027265,-23.68374687332974,13.74060508044088,8.589087153319946,-26.47032422665593,-3.5189841997773623,11.090700475592756,-27.270915752452062,-21.674155128270232,14.990161362428731,-6.725828446075203,-21.293919158388107,17.44626120970255,12.469785501955531,-23.8969081827684,-0.20104577043291272,17.99780689485186,-17.92640083965734,-11.797264558188218,23.185179604320982,-4.301776056162989,-25.441001964157863,9.539901846235704,1.5312713730414576,-38.591962384569655,-18.82359599267349,-4.288139950600504,-40.585387514006285,-28.783114603590217,16.318399654990873,-0.6448317986239704,-15.470624951177047,20.965195918873498,15.00334471232647,-19.438895105093955,7.13342526037469,26.53405549130953,-10.476552756334055,-6.456469636886347,28.84025774515881,4.730384604767295,-15.353678725758419,16.04850749640925,3.9845868355769944,-37.2568320100059,-13.757528574274962,8.780084762693477,-21.322060848089002,-9.231062717587992,32.92416414071827,13.734690715136317,0.07464332060237533,40.52812553546207,36.26654997216707,-2.031827717048124,17.427971261248885,30.604713318295122,-7.837631072752064,0.4346889410323911,41.4092862781051,20.127835095477373,0.10947770181027217,30.837021947292115,19.425793455098173,-18.823833824612084,7.880239101015697,31.286457917618176,-0.9073174599714804,5.5586160029561364,39.666787172914574,13.01054431911267,-6.352639022002871,30.89312716397015,26.37892679532216,-11.626508222280274,7.456110399873813,20.609273740647765,-18.665352902405893,-12.966469388053705,25.102547867413417,1.720540770459488,-17.765287991007426,17.759077132266633,12.307797874907319,-24.229692827679393,-1.6829632774312095,14.113643390848877,-24.716319841118825,-19.469061370793348,19.004676520159535,-2.2210763971219496,-19.13488575853076,16.658561637968457,8.94230258399571,-30.134420821723253,-7.964204889147876,11.554597630144071,-21.236021886245833,-12.277942711299387,26.657615751710424,4.290378805231038,-13.991084492534558,23.448846568478984,20.73210096795236,-15.141575850385795,6.5606169348995085,24.275570949468825,-10.380485914111482,-1.7226691154754192,38.26380110083238,14.283267926381864,-9.748300523013471,20.557857301948403,13.30945667950251,-21.375799394981673,4.3233334421016245,22.06371213116126,-17.630218805684713,-15.457400305806955,20.603685270367713,-0.8904084144253765,-18.073734178794393,16.234963289209325,7.482238133111123,-31.96734669187744,-10.370118432557444,8.664089818375267,-24.78160531499828,-16.51256239212855,23.375747514902912,3.104370512360868,-15.676459927882057,16.557975751694016,6.7421793741343645,-32.728987466733834,-8.569237190771636,14.688407876604414,-16.376262033099593,-8.220162312217603,29.47868281369083,5.701896394321597,-13.860510452134504,22.072354201286828,16.175550887644988,-22.23453688619005,1.1517347559849824,22.866296079782398,-9.880228321871481,-3.135778501476267,32.22468429036792,3.9928678410122007,-21.874153700394228,7.682879171864844,-2.0380879744791365,-42.205306917846144,-21.239943406827642,-1.079965105421465,-30.69718054576255,-15.284383195126813,32.97225026346079,16.960099061486375,-4.168856260642867,22.55261333314904,8.058660751351022,-34.46163633116475,-12.073075666361575,9.524018818979668,-24.82689906323931,-20.11109570871747,17.17506565731322,-5.279110384831242,-25.75798911910717,6.954821551512616,-1.3511250485614035,-40.24922231104678,-16.576474465032906,5.9333276865597275,-24.715296526328373,-13.675694170677486,28.98720838594764,9.319570265719763,-10.878912043776618,20.371032565892214,11.6071227492852,-25.349656630363544,0.7613258797513112,24.269251554663995,-8.614232956471383,-3.996955549446481,31.01275413694235,5.478547674327144,-18.77877646015656,10.468748880648374,0.7079119735027284,-38.70459434478111,-15.128841803410687,8.204128582297075,-22.520825443205673,-12.708595416196605,30.401436240066857,13.588787565720825,-2.7069509669884866,31.61753513536139,22.21799603104812,-18.574249852476985,5.532848950344626,31.228407936425306,2.401453152916014,9.511658633604455,43.12719467209375,14.655957441328091,-9.278750389116283,22.95546814029034,14.497530940526344,-28.056083409845378,-11.523240750697024,6.377129381058062,-24.196766471332857,-12.444603527215426,29.95669599122195,8.98068350666551,-13.666772834582671,17.185680817301122,10.270054687471317,-27.50587226213397,-4.917449462585946,16.33427159556703,-16.26846372066337,-8.13299687146636,32.24705198823652,9.375855389047985,-15.563951009900181,12.590143731196303,2.3690956826912135,-36.36322334625345,-11.014108011148426,12.624592540443109,-20.60761319727625,-13.877732474251365,28.431930774223392,13.628035353075113,0.285516941152252,36.96666809974169,27.956644668117875,-16.78392092628011,0.1962960186910081,20.72373974953364,-8.69684820348532,2.444256313941393,43.960182042975475,22.139121765361104,-0.917745332134019,30.25550742403665,23.644497234428364,-14.858827393502859,5.1564081388966265,21.206345265820243,-19.112281869764605,-18.38383691335908,18.775824659240435,-2.670293133543346,-23.90883675729514,8.152809024573745,0.2560779756177336,-38.50953372251614,-13.540960173903628,11.562118166683309,-19.76193903631421,-13.754067571772937,23.64679948164266,0.40063947557203505,-21.464872038264065,11.719398876425211,6.975342953093369,-29.227200872461594,-6.438512452916012,13.57278776988589,-21.89329554431627,-18.58168949118052,18.99220799907645,-1.3267235647417515,-21.8364809606866,10.029954115575661,3.2000262367004773,-34.93338948193507,-12.10071750621482,9.298954843920345,-26.46382293833532,-23.561427017709548,16.042576732792988,-0.873698645396777,-17.633202093206904,15.412995573277557,3.204801546699935,-43.695123331415296,-26.061460944025836,-3.1328877346143598,-31.220559012070616,-19.884930852082007,22.108505040246794,1.6741368725728414,-19.46716212622167,12.662620276110557,5.9525397848210755,-31.551967869899705,-7.27391428097771,18.298081172454115,-9.134308633616024,0.5450872028757487,39.40232948743996,14.931586032415009,-11.995038675024235,15.512909733313652,8.150674854930777,-27.710990130220083,-1.5189012612188044,23.584366149481447,-8.547434148568769,-4.2687283024365374,32.052002275566785,7.7708859365334035,-16.476106649086457,14.155764720574828,6.493926522436947,-32.5915605258179,-8.977476912338554,15.734621270303052,-14.199245296557383,-5.462778518505896,35.83017177204916,15.767326761967436,-6.2146763330379855,23.08447696651752,10.593927638943324,-35.26129468925057,-17.497654646842143,5.84041036680614,-22.28183332205566,-13.685382682500999,24.381186115939077,0.025522021581707577,-25.091846611230036,6.189404476223359,1.4965718098481435,-36.39579381479144,-14.875780530207674,7.777892496462201,-23.48077926675664,-15.500033714537592,27.492109060874803,10.36140911290147,-10.131867679193881,20.02564506487294,8.694680013747012,-36.786665624872626,-20.030684886317957,1.127614563723979,-28.64521135727555,-18.51845039215058,24.078219368560852,4.952827113092063,-16.679423056008396,14.836503751970449,10.42204638399878,-23.291048010680015,3.6005480416916633,28.59787993901286,-5.122084570891037,-5.387486804300987,27.169303860233114,4.2596886201903335,-15.017964575666682,21.904618258247353,19.58046893863701,-20.497482618787146,-4.574103297838127,12.547718538317564,-21.078810676764185,-12.737209639967617,30.18363252609124,11.122263983460492,-11.228368942036022,19.55417922141617,11.99471055995991,-27.579358207006035,-5.204466762063401,19.128341799596505,-9.643118047648933,0.44810718942868455,41.23480185159664,17.18232179542059,-10.712649038336739,16.404862841785214,8.722372583150102,-29.04256686128426,-5.5317077857448,18.1984557770014,-14.920681700546014,-12.305965920655247,24.491350670415855,3.4073346721924818,-18.215178690725057,14.947423070088682,10.80139479989768,-27.17464010662296,-3.665803877332479,24.667730826315317,-0.9698884984388236,7.8337779533526835,45.40821792167431,17.074386932678436,-15.892100315383622,8.631098684618358,1.4159078485862189,-34.1905748766049,-6.63313190571151,21.924969595170598,-6.609607873910452,0.4300672384997526,39.60535562411058,18.533124374089276,-3.3975418189320354,29.034527045762808,24.180445401907427,-13.639336817017819,7.1706549290896415,26.809113743117493,-10.693326406207806,-12.75665908408626,18.69178630130792,-7.83021022634389,-33.71199360611738,-2.9483538017334023,-7.536982155166661,-44.66724929980989,-20.68613420123171,6.569972156872172,-21.200048970172638,-14.106111591160083,24.665308915776762,2.7653644849317534,-20.38771425923367,12.49277232965065,9.691758563111032,-25.428251627284112,0.14193434258969972,27.141216185137697,-2.080466997501606,2.7183446453765985,37.79768663398289,12.038137569854777,-14.185812296626356,16.27443557528661,12.471547734611574,-22.879470813931036,1.2307225051663586,25.527851383864675,-7.498677444742089,-6.625649510138524,28.768119776746477,8.952294363087768,-10.207975210976516,23.82871305464799,17.043391239510747,-27.431294978497903,-11.977557698330621,9.658286079335056,-20.66382438881344,-14.721393627309496,23.4519930613298,1.1963746780083966,-21.103147338514134,14.549669087103144,13.642460113528667,-24.141090802606477,-6.149013710278876,10.792228777459215,-26.973161390374543,-24.767144382064053,14.862718734809574,-2.8588373705183763,-22.725060666608716,9.398366278151116,3.0246335904969825,-36.0830428340258,-13.927807052848184,11.580671700400487,-16.864108317568366,-9.688131773051701,29.911284770304512,9.14429253019009,-15.715391775083248,12.418504888577951,5.408535981037895,-32.48003028828944,-8.40580070954124,18.815444826451667,-10.26932556673047,-5.882013822818408,30.48157147879734,7.3070930599795005,-16.978917421914034,14.396826369193157,9.347842206067016,-29.69225873988004,-9.05455423068203,13.679768760776529,-17.77552336766514,-11.315150245905759,29.207727501488343,9.081152358940193,-14.635948252029095,14.326539876181453,6.320339230273081,-32.57128210015635,-8.32373750004422,18.9003757013407,-11.878590091844206,-11.433652357292608,20.74404073881238,-3.3328464768214126,-23.835039823233284,14.299894368192593,15.084379475704406,-21.990517523522712,-1.523028907531737,21.608755832582624,-10.54236578696565,-7.930809030069872,27.164094661391424,2.4131093173470024,-22.15237607115324,11.799756906309636,10.512283736316022,-25.489097404996862,-2.59894221441507,22.142996699073358,-6.706208303368243,2.969755213374933,45.73312987741328,25.294959755831563,-1.309530991491771,23.721015116365706,12.185928549818355,-28.972793421892348,-4.664495777834357,25.2933723855011,-1.2371847451568563,3.4259116381445747,38.59903411522082,14.621668077689515,-9.669495849993973,23.424837419315025,21.459348799053167,-16.615686188131637,2.4809077690907912,23.93522189168156,-9.532440446066484,-7.181366504814186,29.469950066759477,6.399608864433189,-19.4685452058,9.712580086265964,2.489502605113575,-37.70267272735973,-16.192360921589863,7.234797363217944,-26.184743711124504,-23.200115770793268,14.889939180194121,-4.92229718973074,-23.850770267678868,14.25753457614729,14.681918398290419,-22.711265445549557,-5.58661089296108,9.530595665509784,-30.317569551733392,-28.445228058892823,14.222297994018662,-0.4513996250018728,-20.651714166729242,11.324193040125142,8.305510236648825,-26.0901325768065,0.47284833541383264,27.371369521685683,-6.6393428886477714,-7.8415006541189225,27.69233230128635,7.28557112044717,-13.693825019339597,21.589460805257648,20.348949763071108,-16.77514236395762,3.8449829464502514,24.80020425276524,-11.012727069764377,-10.986775276303828,23.242907050411915,-1.6097759644035925,-26.993711347622707,5.9468690076475,6.032351955964094,-27.425133444617984,-4.603499994495101,16.846070982952682,-18.238774778967752,-16.520926210480344,21.1355215226297,-0.16570750863420614,-26.055773513947088,2.5085622516499626,-1.630469760421696,-36.71388886794078,-11.271425823636676,16.105228224717717,-14.799972637604563,-12.27385634876061,26.903008895546215,11.371074395003397,-3.855511094107323,36.06638262367999,35.64862475001949,-6.310496163764469,6.292682457439284,21.035661729144362,-15.468152649472929,-8.991978659623063,36.47645305381108,21.30586875101914,-1.8012682392332948,24.83262955395869,13.835164002135947,-29.07243718725362,-8.775901788310946,16.4034260335732,-14.019281691537971,-8.465818862612108,34.107899292156006,18.062366772869858,-4.426494240570036,24.051405383325612,14.12844723957546,-31.112464006369684,-14.078004334613965,10.160258889310162,-19.98577717944829,-15.435767703815564,22.86494898592326,-1.1104115487465798,-32.45319435703045,-9.937710741536481,-19.75913322221625,-57.64499871098405,-29.570778530364677,3.779350573918064,-21.986375029518015,-18.69912697920312,14.915797846089498,-9.79353711695937,-33.32600271179638,1.5397828265107982,1.8990012297228818,-32.786236895136746,-9.539161439394292,16.876771220607207,-10.282529071576937,-1.7528099724057036,39.09031645479281,16.52796668971306,-14.207782229380808,8.434884211112712,-1.5701678345424348,-42.31094464973236,-20.31242733635223,6.330403888900033,-25.05191631400846,-23.605792566962613,13.372407652547146,-7.691594463293484,-31.279444043643466,1.399927139308609,-1.5607042660315873,-39.75279651630226,-17.68341692107713,8.357368262282826,-21.650850778543116,-17.240804166172474,20.415171127359834,-2.6905254259914706,-28.65639797530016,2.649195462045757,0.6103526750923516,-35.17167953888631,-12.91457554954224,10.172101471833656,-23.864864693992846,-22.59506671435038,15.901250252783298,-1.974307085868272,-22.97985541450687,10.136181961824633,6.596954235280238,-33.469420710578504,-13.95414939426921,11.845861221050644,-15.94598194644356,-8.25207854188572,34.406430335379746,17.058408624629283,-4.80371240690167,28.651072975164816,26.83383490527016,-9.394576661243955,15.62133162579249,45.810761962743136,19.917725029844796,25.144446627712977,58.76711595423239,29.379155954887764,-1.8270796685878654,26.595027627191016,23.314654647303218,-14.39061272624423,4.400918791552815,24.620684366989043,-9.797808644157751,-7.393391425222875,30.899459202246803,10.153955643130761,-14.579043418761776,16.721021343884026,14.816489413759546,-21.285530375555226,1.290822134944861,26.702303905407007,-5.542847982468945,-4.975339551095512,30.125535072152097,5.731576198544808,-22.514293063481063,6.025588066628931,1.23859511310439,-37.31430325932247,-15.959729166694297,8.916069293074024,-21.71267191778255,-16.569093908196116,24.449320961446787,7.581192336384333,-12.293243318804949,21.926609481801247,19.9698969061386,-16.287143422620424,7.922714169865371,36.924854862157495,9.364821199701135,12.493320480572423,47.06876587108798,21.747654366065966,-6.96107120206348,21.172906417543082,15.149969348779996,-27.873653268167946,-12.905632326566414,8.188412462825601,-23.333999111549673,-18.080583821980092,23.807184417721167,6.838057727781937,-15.263275891844343,16.126547519616643,9.317925160404842,-35.79783939170966,-21.038029837008178,2.5427295995027173,-23.399785373377973,-11.989393709856065,30.514381829141634,6.508861829726872,-26.529880144743842,-4.168585529424943,-12.111661868237814,-50.389598024699986,-28.381025673181263,-3.099189906428447,-32.76267058483888,-25.26932306931802,20.614839075701806,8.120932444231016,-12.29374320515215,18.259996809217455,12.973684451993837,-25.601262596154818,-1.4470157482263826,29.32095649001348,2.6759355429514446,5.993622756844231,40.87950727958562,15.022003205558109,-15.148657763226083,12.00465004675621,7.9450656496527525,-28.64272732919892,-5.42973306636971,21.76196302471778,-7.027181479998614,-2.1721022597697326,37.313361156999726,17.680603135951603,-7.37181083414724,21.735197350594103,17.47447233687148,-20.776036882830248,-1.7640843752817101,18.83007765735139,-18.18120376327799,-22.19087283522179,10.785328002217273,-10.525912950464518,-32.526300937499535,2.2356131233738807,1.512458460664912,-38.04920013969451,-21.540148926303715,0.040979984757171906,-30.935855363038925,-25.02475502992361,16.343030734032546,-3.179130368017608,-27.403487736784978,6.782253494770988,8.96711581602919,-25.073045348291075,-2.844781276901303,22.35405659701988,-6.078207296681516,2.2572883957037524,44.211132841809075,23.362724750680897,-3.3084692416037695,27.42906966614713,28.44312120721068,-2.4164578766894547,23.303383906978002,48.284006687890084,14.421945280693013,12.88519093477923,46.25646519652761,22.12505869630067,-5.744088855862402,22.273098964040763,17.346309711937735,-22.288464968441893,-2.5675796693720763,22.961635373745985,-6.462874380625246,-2.2719023288329083,36.203616590449386,14.829841044600036,-11.56489896052492,16.262788602830568,7.923242429038293,-36.25261035796554,-20.921160273574717,-0.02643518397651956,-32.13934028460017,-28.12636051023167,10.476698142668859,-10.811276214414994,-36.71653846282744,-7.003530659829792,-9.820534543265456,-45.69445284830054,-22.43440525120812,4.829596582903783,-24.183418134721023,-21.368714893566086,15.838706461622431,-3.6021975448654313,-25.396647637705446,9.91726347671349,12.275461070221503,-22.85292553789656,-3.223625164964595,19.868381605387608,-10.820306543472974,-6.1898409201436255,32.93842704645413,10.650701562611449,-18.115395013870643,9.827803504089518,7.5844541103901,-25.64218397116457,1.8691613277717742,32.14791527804276,3.804085084663356,6.88342200165958,43.16188528805236,20.371735914617705,-6.179556849531136,22.753224752611366,18.312557857608027,-19.8715537135738,1.2681790530330623,26.772606105435678,-4.699575303740449,-6.603525395583768,22.043509712702402,-9.021118244872952,-41.48710102760429,-12.286869015162452,-10.39809947163715,-41.0012412092735,-14.097882810794061,14.665181805104606,-15.479133016095005,-12.926929007127763,27.32239517626272,10.768437634369006,-11.07775588884373,20.81611703829386,16.638678152963134,-24.4370301783417,-6.375366242929855,18.341997740973312,-10.703597043856849,-6.242696460038834,32.042460517463,11.896459185989748,-12.389262878153028,17.20266329819121,11.808611437918472,-29.845673098461447,-15.483949328759087,4.4977481187284605,-24.395236458726277,-13.744242064593573,33.9383075369238,20.70644501418935,-3.9422051315446813,21.283902730451775,14.689716716798907,-20.54156165890685,7.318154392498588,37.72503729715039,4.810225700013643,-0.9561076700554052,28.132638982101067,2.316409763020907,-24.687059003596207,4.142391063407679,-2.560762185860945,-44.062530634752164,-23.430219852961507,4.718380884126979,-22.358809374305356,-18.224703787184062,18.10614781199937,-3.1749579203698044,-24.73619067880686,12.112596148021339,14.691762139519906,-21.80806059215586,-4.305916578372182,16.626615181542096,-15.54380863446227,-11.58978182031743,28.0365449452121,8.150182530092046,-16.831987592006417,15.537560460487246,17.36898715940029,-15.427493637890123,7.220479307146611,29.993359920985743,-5.927439026262924,-8.125997931500725,27.484523182418123,7.268516935655155,-15.959595537345052,15.271457178262967,9.61628491553173,-32.73200713092085,-15.175024932042785,9.468476491276625,-17.690370813887057,-8.903544622261478,32.08116337198002,9.483937815845323,-20.376746487769516,4.8443146454354675,-1.028611076010134,-37.93330093684068,-15.348240676216497,9.874885670109116,-21.798217590470514,-19.881791779213213,19.37977828641105,3.1989686506529953,-17.664749684922207,14.491922737107247,11.581863677511393,-27.068280589718633,-6.6971947861372385,20.09710741406641,-8.220283163046009,-4.792567840313224,32.61124661684608,12.244333212062454,-11.2528665414257,21.679921120206878,20.88113604918718,-15.965602715792063,3.7628540042242946,25.26701054372634,-9.593955279415503,-10.149862417628107,24.561692428529778,3.5807207572421085,-17.1318790388723,18.145185459799002,17.358690102294798,-20.85449069115993,-3.797352965667814,17.019072457993236,-13.919564941542319,-8.475630573200002,31.381145272472533,10.76054079297205,-16.146778009361192,12.843729127409617,10.76839281510308,-25.24954115824392,-4.123535378075923,18.79203028366841,-16.49312302311398,-17.945253737349134,19.131613306550577,0.5475461044260435,-22.154094777670412,9.068653581302891,4.822003673065437,-34.396168479069466,-14.01252179707976,11.027555307894966,-20.003903202821636,-19.15986549452376,15.87470913303649,-4.310190037871152,-24.85235878189779,10.555145281554374,10.409033924390792,-27.664928635833398,-9.843171727024338,12.694587265045987,-18.223494528867427,-14.482430058792685,25.12770563086702,6.788192025273961,-17.310370646042035,12.316878111062202,6.915536589822819,-35.25558305662239,-18.08310999956105,7.692096032297061,-18.976426876988867,-11.49630999109175,30.416874498202418,12.267186962706244,-11.679860428645805,19.61301970103552,16.749892051770942,-22.743611745784488,-4.838489520260996,18.092325362553744,-12.973690716260077,-10.156616868380343,25.82975352236592,1.7320585279277,-26.320404529797052,2.6563752032447603,0.031852955926698456,-36.65292465152926,-15.722834602098256,11.142953326711432,-12.304228783124467,0.8937346579522707,47.4620993236342,31.055557884049097,4.465648343627075,30.20653169000969,23.771946772907285,-15.905401710884874,2.875262076338508,25.98475103978701,-5.776690745838039,-1.9397808578097173,38.929821678971756,20.753910575605463,-3.4703715048849757,26.76321114880696,22.602148518906276,-16.69919695986181,2.0401161469489395,23.96517146976244,-9.164131485690799,-7.214173481443082,30.21581515750384,9.935365392905624,-14.449756188406617,15.186947594924872,10.804504306961642,-28.335288965497632,-10.535234762181057,11.523717011762455,-18.902882227040692,-13.868624961585006,25.419190406639444,4.299647054554416,-24.634310531883575,0.1794955517754211,-5.168921233899934,-41.450508581878026,-19.33744161123165,3.898274689147949,-32.40641863885959,-35.987160251389994,0.4767057377215025,-14.72346624982234,-32.061663591648866,2.663556422336054,-1.923802788123485,-44.818978027900926,-26.781007526007528,2.219416289052143,-18.459083811571126,-3.7004469487972145,43.756040429902654,29.212936888571175,7.546912782579271,38.380739176352684,32.61389652680242,-10.714889355863393,2.1831826176332054,20.271446812768346,-12.832360097631595,-8.72210505110058,32.045066697489716,14.69185672478535,-9.088842715631532,19.742872003455364,13.910697985075734,-26.93093198840915,-8.78429730814268,15.529527817520272,-13.458502098019366,-7.437395876354822,33.738315801855535,14.997423664677205,-10.227927864073639,18.7683104690496,13.811148714158328,-26.073219661337987,-7.750047741369276,14.31228444135002,-18.10442691659855,-14.255745728128053,26.235359673903794,7.412232272971361,-19.815915407912385,3.822364999040685,-5.628986577893179,-44.95817005860354,-21.327558092619736,9.077748891816633,-16.35170318657505,-11.169071860169373,27.374694040914896,7.422220987932995,-19.061375835594657,7.456023938813663,0.7579607342549304,-39.36876848826621,-18.87647648791964,9.022761957950902,-17.64639372032736,-13.040554055144337,23.197531333020486,-1.6419303385924557,-31.607804890845387,-4.632160742236593,-8.127897559593364,-43.40931953228055,-19.363958127167997,7.94740459075105,-20.381754190212945,-15.034152503947523,23.875953057658396,3.605861392989418,-21.106820044748183,8.742809505758903,5.505425046985954,-31.745134849266506,-12.123581682051038,10.385236183114088,-22.181190824718783,-21.109815495605908,15.310924359031992,-4.823595917645941,-27.844840590184717,5.307757593797479,5.47555342956907,-29.638220016772724,-6.5354117367422795,22.14402470240733,-3.1883697658159704,5.350728576517043,46.75961594949903,25.500723747426562,-2.7860888038928175,24.91973341797619,20.641482775713314,-16.84244622801003,5.180750636339834,31.186193398064617,1.8678123531688833,6.867187007237931,45.88873709866321,24.0523272357212,-5.431792114375961,17.539340371250205,8.315306915019596,-30.600706363173323,-7.560457931986678,20.409788756157617,-9.170838295294658,-10.20786714860666,20.94579896525913,-3.3457444554508893,-27.87353150501627,4.860032081257334,4.455194445970821,-31.543655801125198,-9.937612830162376,16.20004231513351,-13.50008956095567,-11.452007762885826,23.680757136156338,-0.08803936228302689,-26.11830879696048,6.8028810245166085,8.03934799197436,-26.465640849777664,-5.559767629008839,16.483425239031078,-16.848699762386538,-13.497507702841535,27.489604674373815,10.816770421382119,-12.559916004680968,14.879517938469702,7.630698950004797,-30.774929360483622,-6.4350179709279125,26.16175009082408,5.441106365963433,15.545285147563797,56.06317504099024,35.11540379171033,6.221707699457072,29.903985279648357,21.104241406295245,-19.770476251562954,0.3986531804455744,27.260207278707497,-1.5862542832067632,0.07048912982812183,33.92285842992215,9.075765229168145,-17.862036781156874,12.632148569920423,9.190052744891913,-30.01790340377567,-10.815152955811726,13.333602154632239,-15.957714222749226,-9.666962466690578,31.28413975724026,12.71461057111156,-10.995838079615663,19.18480411338045,14.483967935781418,-25.140290591889475,-5.457850778918488,20.183394332470947,-8.967782046270763,-6.357367705020911,29.20926205536273,6.096852466344423,-20.80204543617432,9.371304492077474,8.184038568375355,-28.40569219387249,-9.259991691572285,12.544562127302076,-21.122347216592953,-18.741881914017124,22.846502569008365,7.519774442500683,-14.683302878555873,15.204908249230472,10.017003512058494,-28.89849619836332,-7.895897904501901,16.430660521409465,-16.135424055254624,-14.24431717288223,25.369689579108957,8.769926426775289,-15.32576008836542,7.455897706516238,-8.500691513602431,-56.86464584566184,-40.91032655736209,-14.319329146806759,-39.8829948326998,-35.001960378527556,0.7931145508979895,-21.157134693358735,-45.95636784678207,-15.055822819256731,-16.03958860718532,-49.98877958373214,-24.72952005684958,5.547934379170733,-19.45905734883055,-11.176447310562425,32.33419449525849,17.067379216443754,-5.266038296728726,23.287730517479527,15.588217740701724,-24.598097229104482,-1.5680608900978559,28.700276612945352,4.413902092069248,12.696835937243645,54.21673433263275,37.82521728789865,16.43866774898577,45.456022789473835,37.531374247168,-4.224180336039998,13.915933255719708,38.00739298338882,8.551336371498987,12.044976512388644,48.947975583603466,27.564877071732667,0.7811895924390004,27.063531843671694,20.95251085966793,-16.22015651666214,6.1212652796204505,29.60077301488858,-8.068996275997232,-16.644782913882896,10.737075009447164,-13.747602624283356,-36.120908476728275,-2.6782389112886698,-6.798400162491221,-48.09207539843498,-30.38547245103362,-6.246784049948804,-34.83375246928054,-30.521998783797084,4.342487574435838,-20.15078806446872,-44.491246594511985,-8.128026211916286,-1.1766737581922935,-28.412742214465002,-2.7585351107075518,20.33784825575782,-13.61875321210691,-11.788584281774117,27.172571237778715,8.735557552568645,-15.700436725948169,12.305047013040218,7.099962883284315,-29.32828938974781,-4.037600078443546,26.610647709500192,0.24746053042340677,4.877185947739775,43.20060867086108,23.284562008438684,-0.7871055875835573,29.71639778777591,25.376555429964352,-14.220472683955737,4.794056957535965,28.966134628842465,-0.5300812539117885,2.761032400560003,37.175266232500256,11.880902451193904,-16.544020872230544,11.040724566348924,6.9796156462210615,-30.625060090677763,-13.12309239520704,6.001538407692124,-27.648997206803323,-24.515378282954757,14.593671783771326,-3.7204653804914116,-26.411075353672345,5.497125789908662,5.0328874132773675,-29.02343423760539,-6.344462051740852,17.35486010416726,-16.03300918075811,-14.829094419736398,23.101645121946234,3.9282983886590355,-19.731367951367147,9.429684869156759,3.742949903357589,-33.68227896367003,-9.063408236463356,21.99044357126847,-0.2917365548903401,10.13272717645938,51.38768028423708,32.583383437956,8.978076508835121,37.01619401378413,28.08305719266833,-16.704910782889048,-4.0841938138313925,14.756904764607153,-16.00097396681427,-10.126754339413162,29.15492774099913,8.14136023421702,-19.461981957578356,6.118950909359668,0.18986346089085337,-36.27517885575375,-13.136394200436332,13.546884672016901,-16.351539263027373,-15.758310127151606,18.003757303856585,-2.6502022835596897,-21.8790238461261,15.278110522709591,15.92860216158036,-21.96953493251261,-5.748826596605586,13.274741398970736,-18.69340552883679,-12.651448148776506,28.73827631185214,13.007254909072781,-5.514367464393599,27.970792198290212,23.473231223600287,-17.102992026627888,-0.06879121149748357,22.235201626519032,-6.463991191184888,-0.39786509162828576,36.78727632125736,13.499833753874704,-13.734759474112163,15.20673756904576,13.673749062688266,-19.71394515396021,3.8788111108427756,28.134476081553633,-5.632318234620971,-7.398273586308221,26.875206127518595,7.665843966976283,-12.699948376410799,19.00021839653472,11.959801584421399,-31.368601849232007,-15.117850220986254,8.76828672238722,-17.38250024915716,-9.997495800015438,24.862050022679526,-2.4089694934920587,-30.597257480936968,0.11199652285488071,0.6299555603720322,-31.128781437794714,-8.57952569874039,12.26176916082258,-21.97846412081052,-19.543932046090376,19.62622578246924,2.628128662831548,-18.090346469552003,13.932528536440964,10.650023839497122,-28.005901040099317,-11.115602301960905,7.071230195642505,-29.07546827609999,-27.244023936496163,15.215653982102925,5.8648918959619,-4.010828232452588,38.012284216730094,38.832217435800416,-1.2385813436170068,12.478547219228961,27.81835757618722,-9.655623197028028,-9.677356061300273,25.90143654763755,5.038300850972853,-17.81389731539308,11.812428466309127,4.80794107714099,-37.13671804290648,-22.99760055750091,-4.726195684807159,-35.049722047703625,-27.166966408213227,14.672065265534988,-1.5303666435346734,-21.275401093276237,12.910925135090594,13.414237599374921,-20.962248820891816,-1.122076049177661,19.446865001447048,-12.10680994518504,-5.265114636540343,35.753004771564136,14.295861095731006,-16.29278727387832,4.546512512785467,-5.61043112762845,-42.90988260371396,-18.70799192096976,7.659782404667168,-21.820467562875944,-16.961386301421413,22.93718419224568,7.408037008512071,-10.072946984770596,23.976811694104676,20.860349206409552,-16.271307609329547,4.154416949801245,27.240913972746835,-3.399464698380921,-1.3791092665404907,30.39849838725836,2.2171352468545233,-28.724691678103756,-4.409555630668253,-12.075102258940408,-50.656930479421234,-30.369553112706075,-7.5156928955835305,-38.665810440084925,-34.19260389051094,5.086322441626383,-11.47632027787401,-27.147441602439688,13.63661034162006,18.720748785403927,-13.22509717635932,7.318428217653013,25.705718176848926,-9.490094210913835,-5.744711473348028,33.75470509924895,14.835231554869814,-9.30408780310871,16.33208753963899,5.502506533866736,-36.40293500243795,-17.657549471289904,5.680374064906628,-22.40080230192534,-13.792831101706883,28.7240909175012,13.388392610387523,-5.100896652385061,29.6037845520219,29.631624115510697,-4.320717206989157,16.79740263736258,36.274208179026544,-1.5894717331787511,-5.134248739858904,26.865841215897717,3.7910555749391044,-19.876545072693407,10.704476285119231,6.586132642546328,-30.46578063566098,-11.780644194928682,5.353009574646009,-32.06082507782166,-31.483833129605046,5.760133460235675,-11.561781561580906,-29.703462571084632,3.236756975271774,-0.49433922691761634,-34.33478993496863,-8.213354404198387,18.179652710935247,-12.685728917347012,-12.021047020925582,20.43175977834276,-2.748105380369223,-25.12522383883916,7.566363815617009,5.070959402837058,-31.33493584583935,-10.096997023288395,13.629040356154382,-16.88880829665215,-13.526030137246929,22.075290961512863,0.133967721996191,-21.873467539708347,12.623401360146344,13.98504025036065,-17.123677887460403,7.725899063959172,30.049858014842616,-5.2423538469896265,-6.3478201533060306,26.582478533284323,4.5957170736080215,-16.71037046298212,14.68728928745331,9.558438392765863,-27.200161182367047,-4.987508770667631,19.495421058749216,-9.873879297119455,-6.809909431127135,26.823967765217144,4.881690904343424,-15.189737088302063,19.845131282169632,18.81779537325358,-18.107798856415684,-0.3305322040611287,18.61012907156544,-15.228483895664846,-12.503316054674999,24.82114681933809,5.558243069393834,-15.194697734735279,16.866515112682883,11.997673248650473,-26.602925283353905,-7.769382869753979,11.968111413348192,-21.10716717406227,-16.275409360744355,23.45386303919294,7.5777285100282405,-8.998465285813463,24.0681531728477,16.73957188316917,-23.225580844278845,-1.8431323272991733,24.21761782828096,-1.6752334068995651,6.334621678848634,42.94771819037918,19.4365250203471,-4.22072643425675,28.057865289903148,25.162970786631973,-12.680717057764625,4.6263987039439805,22.454066276635125,-11.268163904188736,-5.067713386578507,36.48975379853997,18.976684706627665,-1.4693578193987245,31.959027486229118,31.123614318985084,-0.9470317552770631,22.486910436155085,39.95721043870279,-1.4124682112084805,-6.597535132668848,24.218763753980557,1.873126095971772,-18.049186293392705,14.61882722510346,9.408146210287228,-27.19293524507718,-3.7323991387383977,21.91126287842474,-6.037633295858894,-1.196507049684107,31.563672923603775,4.549325295695521,-22.57888444455797,6.08535179522392,2.4109204750527224,-30.788064226986304,-5.687614757135467,18.399670725302254,-13.941373580691913,-12.717295767592006,20.08048129799637,-3.499408072305739,-24.755383390555544,8.784689207078102,4.544267576880319,-33.9752504094743,-14.897730686535784,5.990312811348598,-23.531382251002007,-13.703484431287187,28.3967033718189,10.155264604960744,-11.5841076753973,17.08424315886394,9.357400751549692,-27.98183183804118,-6.639419890295823,14.555040463463126,-17.054586573523473,-12.23981476956599,24.862758325530343,5.492538776850804,-14.597878911958693,16.233355856184048,10.354802846254398,-25.906099741167942,-3.469778111663606,18.37006174118944,-15.013360843744328,-13.13241326850409,22.433824969005887,3.825510063287446,-11.685638114133901,26.2746067385118,24.454114246238106,-13.734166515389308,1.7945555223481673,15.05221952333414,-23.137050433093044,-21.77731750953893,12.380987950563417,-10.287790624306636,-31.574006727297686,0.23656653545880246,-2.9409882165407852,-34.79569831380513,-9.340463767969696,13.271830913491888,-18.05279604927997,-13.497489994081052,20.921168736121686,-3.7230286800773786,-28.51112889148299,1.2059724046680458,-1.3627537595810448,-30.917597173868035,-1.2041375976782795,25.508846002111593,-5.753008069404132,-3.602406490261406,29.42554471947808,5.027799911131114,-17.611169138592068,13.63927568664658,7.192680269965521,-31.13910788881516,-10.846103091135767,8.731150156302045,-25.02151671844876,-20.831233968325748,15.63652057762391,-5.560950874091263,-25.57956971286769,7.574469144247903,3.8472900970177832,-30.795433449155226,-7.630535258718069,14.474827677071893,-17.26927170924134,-14.312786937823697,18.80610274256253,-4.751057489973334,-27.178437659898837,2.3177313913503923,-6.060536741860106,-46.919915355505346,-29.826332193982562,-10.430313147310546,-40.08056799493994,-30.110581062379893,11.507920080815182,-6.863725020364647,-26.522905026101,6.720247564264717,4.4871376851710885,-25.870324286129854,4.521102478908038,32.70536101092295,3.557429837759024,7.4359610470810225,39.28601711528515,12.558793647630884,-11.302301431039481,18.409449157209753,10.29699498357796,-28.65880637984574,-8.68395142398278,11.815144355433082,-18.417000776223876,-9.879762422274176,30.778684596500838,14.045320716980914,-3.2806930279167705,29.197567982843722,22.73667596645788,-14.174371233792685,10.181462950992898,37.12134123576622,10.348477988978026,15.344691742596147,45.7300637717866,15.634993555969828,-11.897999849832424,16.391865118821514,8.593048121327946,-30.437737089733343,-11.79057336564176,5.668503532896353,-27.903190906078425,-21.906383277347043,14.85942239969449,-6.533839165739327,-25.375011654209494,8.902232463997386,5.65459622823891,-28.38382169290668,-5.162190168843491,16.587468153690907,-13.180362817636498,-4.821060835438871,33.69138685463555,12.511857012308543,-9.407098008547626,20.96446587419606,15.418091983690074,-19.864382178373084,3.0288884639894462,23.923106427237826,-9.718481834894066,-6.9724621742469886,27.262775572903504,5.028423394120919,-14.428422012949106,18.656121856548822,13.371009975592958,-22.186302942470576,1.365700884839331,24.11686891882664,-5.4383887547650875,1.1030420294754002,34.54986870667012,7.5286379463836965,-17.709236382366186,9.947359188155062,0.9019843200831374,-36.19873370824531,-13.368605723484286,9.354972121461207,-18.545022854916404,-8.843320388337043,29.315356832821713,7.709708425819647,-13.545142991381217,16.933844411615517,9.71623082645377,-28.65795828710538,-9.462464557957436,9.519793856702705,-21.82487310546591,-13.644806381468621,25.16934335631862,3.8285918209429273,-17.169671237632084,14.675103920105366,8.503126713135982,-30.129819373435254,-14.322457532585037,-3.1990447759425655,-42.552815281178106,-37.04162100280979,5.9024998868102845,-6.076103870809513,-18.201239768056556,15.747545313752108,6.425099571282347,-34.063952647028714,-14.758573860066651,6.664105591851811,-18.516925760948958,-2.9543697266109845,42.030341475876405,26.849205976123255,9.34476431753897,38.95833211633985,28.359485791226277,-12.629797142623794,3.7582803937371754,17.148925933193162,-21.760783708055904,-21.07896112410814,12.210784299995277,-9.556988315336945,-25.359515788816502,13.679285940148059,14.652038387679708,-15.58018827242277,9.052081963540825,26.25902031512662,-10.810065994304512,-7.600264251291632,28.351266189249937,8.995446924385147,-6.94825986602192,26.618922137931136,19.327083201916086,-18.519578205709337,0.526158984553259,16.22258480029288,-19.280934744753463,-15.346395226952826,19.910661587568306,-0.15058220881811124,-15.846121414915583,20.04350986882535,15.966129630539914,-19.753992329196926,1.1317539496297044,18.891775043807407,-15.119082080467813,-10.458079310275274,22.82847841558817,-3.0591632009271663,-24.3332446980358,9.682738778068694,6.2443014518791795,-28.167398941205107,-7.214970661658299,8.770164841084311,-24.762799196507935,-13.951128903335478,29.25362091219337,13.285072375633295,-2.966933705230964,28.570274230525072,20.90865377864064,-13.294849777305474,11.08470833380918,30.740316831837298,-2.867996713801869,0.01803862771242226,31.523201517346013,7.700498560882458,-10.430453414363946,23.546330394943595,17.833662847910787,-19.265652555299468,0.31426518747962895,18.105795942642526,-13.36941783617868,-4.998447635665807,31.523149321585365,7.777144179511087,-13.48710588581223,19.503335581471752,17.784823729754205,-12.317811178630365,11.04714349877977,25.42008242212565,-13.544556430628937,-11.578062441543675,22.07768294813136,-1.064169388516957,-21.620724781294513,8.70211101539244,3.277585675463536,-26.99859454205396,0.1436041310497984,20.524044582239394,-12.502081751114067,-7.464642365195511,26.52020885135245,2.7677985828635947,-18.49398003166282,11.514726491619607,4.528415980780535,-30.418397049278237,-8.888522593120076,7.887327569442997,-25.342441987102035,-16.53390512402065,22.46497432600779,1.7406292737428348,-17.729646342820914,13.935487696313979,9.21192997063099,-20.999316700213416,5.872170681025391,24.801788734895283,-8.622380216190127,-0.6111296191294819,37.29377333837071,16.544305729825048,-4.329452471418328,19.22577183156811,1.2127676582215106,-40.77518179264713,-18.83784319807728,4.110649552969804,-20.72748395226703,-6.846218088006317,32.81986445943309,13.600477896670839,-1.3671422884241409,34.39324146406345,29.888813276479112,-5.6226291443481955,11.88377080857464,20.968020804563373,-21.04012413307339,-19.53169170056726,14.776777561948204,-7.0260972273414595,-25.469062444963647,4.8091109835027765,-5.456516494390895,-41.59737431578373,-16.742202244716776,3.5735593558546026,-28.29143403814922,-19.60152637494218,19.131730511148273,1.5972796000201175,-11.477040638871934,22.83359088526211,14.216488347680388,-22.14086058987448,0.5257501648026217,18.264556456738447,-15.969174637658119,-11.88094564127063,20.30025429108227,-3.0701557639553805,-20.891793575128236,9.994426665949407,-0.26205221663396117,-37.405640962537944,-14.001208592859353,7.019200544804333,-23.054596062819126,-14.58248389372642,22.399320249383905,3.0453901340475404,-10.651111621814158,24.792530308698854,16.978322499215814,-19.31929728825507,4.877912385233918,25.949174540695175,-4.026478988344763,3.2284177455000993,33.756316406023174,4.813604058641882,-16.88803644357427,13.19280474411151,3.204445563493964,-33.61298239234909,-12.15461352308921,4.79687889116118,-27.103161550184925,-18.777564438214497,15.616344409578707,-8.060943041088652,-25.516627101709222,7.711438618372961,0.1364943052914107,-35.70617352130358,-13.582815398452926,5.67135766607878,-21.808798479277677,-7.611839161118581,31.530042496203308,9.220564799855183,-8.756312275007033,24.22913518388853,16.948983665230305,-17.97148977259628,4.029630310325366,18.933890866954258,-15.682439729381642,-7.354508769635565,27.70045503715192,3.0906309249528103,-14.6529891989106,19.501565299056566,12.94437281206046,-21.947758838117252,-1.450733619825952,11.715589020981497,-23.11320137157972,-14.208108734382133,22.22587082692064,-1.4653805788465704,-22.25279887587428,6.690691453340124,-2.052993931395413,-34.97437754879029,-9.923205720038732,7.0351933128994775,-28.121573706057056,-21.62503935957401,14.642573776197572,-5.612268894653912,-20.54540408123519,12.286619308309447,1.6611476503379148,-35.668711363882416,-11.735832387547509,9.299704401060021,-18.509125994429034,-6.932514091617559,27.833355915449257,2.318255276122814,-16.61904706097086,16.2987856543803,11.19949612815388,-19.160646404681536,6.27337573993047,22.782874709330404,-11.728101263878813,