160.9817789408612,119.87109673718035,90.62901398565795,114.88046300535478,90.67838818498005,47.6148677700471,72.03412640431009,78.50067480375978,31.440232961337003,41.00195838705354,79.48406035291391,54.81450459725506,45.31464967701331,82.71806537714984,58.46402143144243,5.293604240102148,17.964413451171822,17.397412392169578,-30.18600668801998,-19.00095162151149,17.433797087696,-13.601987544164402,-32.69895739980646,-6.544842065989091,-37.11514117255201,-85.7230350950711,-59.07577055387981,-42.07382063491557,-76.57660756664436,-64.35424391773168,-39.23627596895214,-85.70188574489038,-112.13495593587513,-78.31084928306784,-93.22214204826437,-132.11613528562782,-108.63711205373849,-105.03715686398728,-152.55241754244227,-139.7588915902248,-98.42289545471735,-124.51775586244318,-138.9551935249099,-105.94553852218665,-128.63164695085848,-172.1047398866705,-145.7191441480701,-133.56545080514434,-172.07832935270358,-157.72610999483726,-123.47800103869682,-156.64367673359592,-172.13066000504017,-135.00571250932754,-151.76418724927893,-193.19612638948715,-171.2966981782157,-165.60968994049705,-207.04817185239006,-189.1770170103471,-146.31478710557917,-172.2057586794374,-185.70674538712686,-149.77754323709786,-167.13861409199663,-204.47539816930635,-172.7320904987649,-156.69050214442268,-193.40303157056027,-178.3987605199109,-142.86436778970815,-173.82969575833206,-186.12759450649176,-145.13276959692615,-158.72046947160234,-197.6147249016866,-173.18834439214217,-165.25984242305398,-204.79243589781777,-185.91782016459035,-142.6153862108391,-166.327406967296,-175.59855531805317,-134.70427624435877,-146.45257271785735,-178.96746163716261,-145.2638561044308,-128.97286373958954,-165.09636778562552,-148.75812256505475,-111.28985108420811,-140.4571797932249,-152.64211110400748,-114.31191770682773,-132.3605177628371,-174.28843423090825,-149.37960233206348,-139.01377463682272,-176.6462408701332,-158.22653737534682,-119.73033423838822,-151.1865917436428,-164.7325232701121,-121.26699765905009,-126.40938497599184,-150.7927728131877,-109.90632712817944,-90.36447959864324,-124.30468998209386,-102.11053811771995,-55.868148569892654,-76.19634233766502,-81.79376776615062,-40.452257233387456,-57.07405092134319,-96.52519746718296,-68.47568966762827,-55.802421888573065,-92.40791619657682,-72.78305619068567,-29.494914311943756,-52.487018336930916,-59.99469002988249,-18.330889113979808,-33.30971511026512,-71.78976386282886,-42.82728503982259,-29.576074714835613,-67.10161047354052,-49.05988612227577,-8.033144803579013,-33.841298090299304,-42.37138244324461,0.7444821279779745,-10.306609386689113,-41.216984697819996,-3.3714941021345837,16.015662225768153,-18.75743356873034,-1.3028553189105114,35.93750413160109,5.693258090223129,-6.816653255355133,32.056433388317814,17.358959871858616,-17.781512438192976,13.333656259624007,26.30995364254658,-12.659444544805133,2.008387121470271,39.68074276054952,12.986049603222202,3.4718750199936808,44.39554260002589,32.04171195820835,-1.0346472832137596,32.028812568688906,47.22676076788711,11.074650539259135,30.63153045124745,75.67533268222087,58.23732137713777,58.79210200439206,106.08519035819359,91.63784812906091,49.73841295930843,72.58200239592574,79.92445947525388,39.95426154010884,56.14363411276106,91.2370668821409,55.685306773179626,34.865260096111975,64.50283453756536,41.430928829304115,-0.8069833931857193,24.88255213771219,33.652412848354466,-8.94320209943129,2.6759157407580876,36.3460823674273,3.79279550892468,-11.079591920701573,26.194408335700512,10.274416843373647,-25.831348625718228,7.687738260454417,27.63718292577861,-2.5412428977177264,18.939456989576513,57.18028429983029,24.073301475272118,7.509170670012272,46.83835367729449,38.08797336153681,10.864544855958778,48.65340264636229,64.90316490548682,26.982122994897946,42.772705618581725,80.0181267068404,50.758757877412414,39.83135620792622,81.20008307076061,70.01883655620139,38.70059642163933,71.38352680472927,81.75384877978678,38.57589014262686,51.17631462094796,88.74580236629724,61.7969439772332,51.165968235504906,89.64701406532167,73.36515953682184,36.90738985894107,69.15981438753379,85.38852280601441,49.376495775037384,65.18170350286165,100.78361110944564,68.02235456726604,49.54675862542113,80.55096658624493,60.1414690004854,23.199304660781124,54.69479945352354,67.13165571581565,25.838561092380168,36.88083120640221,70.61465807044279,42.24528598629357,32.58014257473457,69.68766927023805,48.59209883076585,5.8048753249176475,31.21391401938462,42.56723096754715,6.458040556472952,25.786718872814312,66.46666725001458,40.79034865646325,31.498011353984992,71.55430302586421,56.9152548300972,20.84625824617529,49.7025179802937,57.919810055505025,12.425036888377972,22.904020061058105,61.36867609916242,40.26583757425857,39.53822996628011,86.95965516749212,73.03306617673766,31.75717739589572,54.94412945764269,60.97040237618366,16.94880579251675,28.160074299536202,61.76338435861304,31.04967202090711,19.408318890366125,57.5659814807916,39.11744123281327,-2.7398553669809207,20.53892654405457,27.514604326762374,-14.371419966992061,-1.2989416485751377,34.97850315414429,8.689821873032747,1.5515590190973585,43.9633907499737,29.023483401162622,-11.077246268661867,14.993807687877137,28.13142766919403,-6.655240220135603,11.426056154348078,48.81566812594906,19.139476530978733,5.795874431092511,40.93044580040063,19.358809110149686,-24.855798161878063,-1.434265686170015,9.577690004672833,-25.38762328347146,-6.852745834693831,28.656044101865987,-4.849243365827888,-21.654617885469246,13.22511599346798,-2.6589361914401586,-36.809660550691895,-5.132718877654366,6.906213563968992,-33.94427578020732,-21.000463930655243,16.165239969892756,-9.817937992947064,-19.45085900942425,17.5912484816497,-3.2742368172989185,-47.350982903129776,-24.07171993194019,-14.382534379506161,-53.02204091091847,-38.0885554633543,-3.141959785790215,-35.94238051991193,-52.61782231836425,-16.64443840572515,-29.244885210331816,-58.07772980803156,-21.241107599353654,-7.809372206663486,-51.21273734737691,-42.68912240797333,-9.766644969667594,-35.1609150418978,-37.508390691764525,8.426694299286869,-5.579365875100978,-44.726886335026265,-19.154994181887524,-9.031397500451597,-46.25337159971182,-28.804865012892385,8.084311018331992,-22.807015232216123,-36.88144226499927,0.37857849050541503,-14.922904561597019,-50.25793538898359,-19.42669751032335,-6.941705528913628,-46.64486330685516,-33.542948268243805,0.9086409769309096,-28.974319394109607,-38.92427355291832,3.8547637791291507,-6.479588280763702,-39.01683733461616,-9.458293060313679,-2.4258573363363767,-48.024184688221226,-37.195189214907174,0.11190670669157754,-22.625329726691735,-26.28891229555959,15.33735721503257,-3.8324044826712385,-47.272029580724976,-23.447403533655116,-11.332243590267558,-43.82991109873489,-22.43122726768954,14.965190256243357,-18.37231756411479,-36.010283363224225,-1.2577102925547656,-16.2505133130646,-49.829434692237115,-18.969486088844835,-8.239896188053432,-47.87588270374644,-30.53116282364909,10.240033490957446,-14.937920839739002,-24.73938397111641,11.83477134093406,-8.34859377713925,-48.01539343401625,-19.179756627350958,-6.644167687768894,-43.320834010995334,-25.90018506406561,11.283794303017432,-16.12020370166568,-22.464935792619183,23.15597176904197,13.857046884950213,-20.2031291990808,4.574476984391541,7.42223930133694,-37.128585468051895,-20.75497008087237,21.958246420358567,-1.563329970164773,-14.600543492552152,14.972771783800173,-10.607972939692273,-51.53877461537321,-19.7710379052501,-2.633166105945501,-37.82075114589185,-22.586904817149573,12.28827700779596,-16.24190503326301,-23.535588068897347,20.760839476536034,10.861021720979625,-20.095435911599306,12.733291591839468,24.93944355557667,-14.723158740219752,-1.5675673342227388,32.57883952855846,4.298420179212721,-4.057418936311037,36.33613322227361,21.186045200458157,-16.116752831080667,9.603032519958791,17.232885433821018,-21.88036328716565,-3.5695605772578887,37.17196198182988,12.005700938832428,0.7377311796903553,34.028646428524894,11.330565111876838,-28.880101884079085,1.6280950541173098,17.04254484790629,-18.438112735553503,-1.9774894796474491,33.417963865284385,3.303769858997999,-6.234594493873141,35.936470822513854,21.892572716951918,-15.930852011931616,9.869830434397697,17.036888083388597,-24.44757259394749,-9.478366795840289,27.269418404385636,-1.0194727632872578,-11.439526905781605,27.450372589746262,13.44177687948226,-18.856750790532228,15.269118266852143,31.70671619375562,-3.2491345893462587,12.588251612771414,48.374273618754465,20.783705966780484,12.08518401470134,52.67530833472942,36.808132960572976,-4.104785614800228,17.016158850812882,19.173974714053564,-28.75765165450521,-20.502719843757713,13.927610913467177,-11.516976434866802,-16.617383899103245,26.744703303635454,11.36913433507375,-29.02950745845775,-4.429858504772628,5.8906707344979505,-29.03681176680727,-8.461667838064544,30.00340262486882,-0.11905968681731238,-13.63525591325736,23.085862366402786,8.219090007317416,-25.28957520323737,4.541001677515794,13.216319179625081,-28.710836237585404,-16.24589355600194,17.10578385249478,-13.663331311887873,-25.07212893009909,13.620849098487302,-1.343904358217717,-35.330652459292715,-3.273075479958141,9.702747230235639,-27.54068181173913,-8.991004080877657,31.58510566430317,6.109820987856217,-3.4387498984572185,33.22081850642662,12.398499367200595,-26.516734466977752,6.978187150442135,26.236808524800157,-5.891505706729479,11.7545382503092,45.254005475286135,11.508509921955689,-3.8085550295196136,30.16035887054643,9.83075122794073,-28.975859654815903,0.6578592673832446,15.103918277911793,-19.933882016007832,-3.9247121489510004,30.8876025308586,2.840301588069803,-4.672218183546795,36.564940674438056,19.91485585980227,-22.163732256350094,-2.24860137400497,1.1700065670420248,-39.292791255707314,-20.50714571822739,19.386324032441067,-7.974192294579765,-18.986361606369137,17.873699242842513,-0.9841919741284464,-40.79606870560978,-16.153527334434877,-10.498621705726668,-52.189154687734934,-34.60036051642177,6.87290311698605,-16.133029283013116,-21.441354526621115,21.553104344284456,9.033480125455526,-25.376670878274485,3.7034329883404915,14.385163613379522,-23.802182952489567,-7.534557848717647,29.796451603691263,3.0123494965397803,-5.275250434584645,35.338368124962514,20.086063721305432,-17.921373998170125,8.160254870062143,17.389050885092132,-20.802506297981367,-3.711135923260663,33.12126305315355,3.7252456251798343,-6.749619014786264,33.94263900838013,20.797161317657643,-14.312460695227388,12.267067717058133,17.58299851372504,-26.25846237331072,-12.729237296125262,24.185583054326813,-3.081757885660341,-14.10791634293798,20.652030372108534,-0.5963017513204711,-40.447895360144614,-11.894814944852072,0.6511310942854459,-36.2574709778874,-19.681785391676776,17.527751756122726,-9.77802271952568,-18.78515084884036,21.57829255414422,7.243165612827527,-28.482284650296062,0.3094572768201935,11.512968364085845,-25.262908543028537,-6.309152444456354,33.484858651074774,7.249053314571311,-2.612136604143898,34.361451530092815,15.009893284693387,-24.4187901655705,2.9198418357695672,14.027575285510647,-21.317757024826864,-0.8732687185215617,37.23313564215017,5.968046415184531,-10.140393679843122,22.540225643521158,4.7329586789982,-28.222327903567834,5.685570306993963,19.684646129876437,-20.430484011448108,-12.295012869420633,14.658480243213,-19.029041980532963,-28.946475074798,13.785888904207315,2.5482222558075627,-31.72209408679495,-4.393195274898314,3.6110523251306623,-36.20331834853345,-20.047818360675752,17.147091454890337,-9.80466840721559,-17.808465241779714,22.371635204271737,6.7161909323996785,-29.19913421739769,0.0010355617258746008,10.026039089115475,-29.21905777548264,-13.266796180862466,23.658613355719048,-1.96924027336226,-6.22853665801012,37.360424760684865,22.18038273767237,-16.0051436200514,9.834307260774313,18.46499920507247,-19.410404738352064,-2.180542307163039,35.22424936078873,9.770596869723093,4.264592737233544,45.82763033355037,27.67706879041784,-16.434555076107586,2.958086837407862,9.082795107264099,-25.832661933082548,-1.1027540970447092,43.326815165121154,19.02556780053782,9.681710043290147,46.60095318376623,26.956808116483955,-13.172631963942335,12.175781488986475,19.200825296977214,-22.8656056970713,-10.736540265761484,21.223334827774394,-9.821440535952991,-18.541884186338024,23.890114950567213,11.199891212703767,-25.044177953242162,-1.8469346688713895,1.1976440106011292,-40.02748907032991,-20.720911157028514,22.260213565563483,0.03471683262667469,-8.686285856286794,25.95982257294321,5.124828450507076,-32.26313046804661,-0.7869114748188473,13.494775294548976,-21.71977543945546,-3.2770414001501997,33.64201939966336,4.827119171976017,-3.976881468650264,37.36621851676406,23.321053088714923,-12.606312811750406,13.613156724988237,18.966075954506657,-23.61058296543278,-8.57464082060158,28.12663603966575,-0.07372874034483345,-10.992121460322426,24.56484578053597,4.196719619369633,-35.877492514442714,-9.857699487023847,0.8194184058636658,-33.77883525847416,-13.97167591012267,22.38479355124457,-9.41752099319245,-24.074050303280483,11.761798629117553,-3.4888897309632796,-37.57661878272066,-8.109921519242132,2.3666891105828043,-35.15930911613721,-17.207418530470804,21.108103941876788,-6.196916094607857,-16.70888603083588,20.072944652202423,2.5843379206621364,-32.85766540259969,-1.2160209554777062,13.446949308616981,-21.00842336310664,-4.105994367406536,28.961689424054974,-3.349088432400876,-14.461790008410112,26.297728016064326,14.664144436828234,-17.600656630317324,11.068274810847793,18.10556413452691,-23.86472829973745,-10.290899456698035,24.892573262411844,-3.149187457297856,-12.689207685444568,25.758262283029026,9.580252837502513,-26.89888725565774,0.5745709430783492,8.812945609097962,-32.06123231717088,-16.43081489853429,23.289791897124495,0.19870148365387408,-6.658762634946708,29.43488746490805,4.938428903400327,-40.34742953088905,-15.182124280889948,-0.45826432962739105,-29.117700498707443,-4.618773782903956,33.11554159770801,0.1546854511395317,-16.11255034767188,18.478690359106757,3.4550217119466904,-28.56361518267114,2.0619589054570007,10.71215803040646,-30.967076428243146,-17.905365011326893,18.11798227195767,-6.706346959953466,-12.979694792606171,26.68827141078826,11.049559957766627,-23.570037385960322,6.963357854838176,18.608896899787556,-19.592500382436832,-4.8055654259176706,29.444579777166442,0.2021007401459478,-9.42977431355906,28.203606429836196,9.724634534019712,-27.30975337736274,2.1559022630701,12.589626804959781,-27.286708377992106,-14.703641135273687,17.494986200699977,-10.246541775655086,-13.139217963081784,33.812360684200506,22.388168985570715,-14.376039124085088,10.522369625978145,20.038332661522066,-13.299326280115176,8.71511353719917,45.53246700303498,10.652315624469173,-10.050511937656987,19.987120442693133,2.5748107170026078,-29.63009854344731,2.773993603833542,13.482494323511942,-28.42388301502104,-17.90271836049554,14.431945750458683,-13.727568152715978,-19.93765443048153,23.101560445289635,9.897246352479966,-24.87168632029857,4.1771449445637785,14.432702192361575,-22.554377583611398,-3.1594391945219993,36.56364054708676,11.707269515697805,4.737627231091688,42.807920223922864,21.935723150314303,-21.115995113890854,1.3153225950639928,9.713435173512806,-25.128374439824036,-3.969157778796747,34.730663339808295,5.15437238712439,-8.357797239991752,27.892023369291636,12.534188843269105,-22.581443730558746,4.659044299648624,10.961550667880708,-32.15621712043253,-17.879211715638526,21.34896546159292,-1.333180224587366,-7.106736612969886,30.645747848352137,8.796299874239168,-34.79395913092969,-11.45695981514852,-1.4508259409892945,-35.63320772041348,-15.541286732841215,20.724624119110494,-10.881860173988493,-24.63763273531911,13.148321101016164,2.025772562276561,-26.328551386404055,6.704321545575823,15.757354479605459,-27.647796321447736,-16.973131079775385,17.634440219385212,-7.40360766794975,-12.142190484811575,31.077105811734626,18.357804605792452,-17.24642247070652,8.295604308265148,14.292776839576979,-26.152523207674193,-8.265919787580568,33.22773281472529,10.823753261230934,3.379828819645451,39.60297095009088,18.76121510426939,-22.283997233314906,2.341630037882389,11.431180541992363,-24.73047818718259,-5.7278272166341,31.659542465579086,1.8900360144440675,-13.034089699681534,19.26597020781543,1.0493027534688242,-32.456948181136895,0.3404220137299241,14.96089461053892,-20.925632181535427,-6.248189940333001,27.229949899774823,-1.8737509221795214,-10.803736535343877,29.803487483781744,16.149548475018328,-19.694266942048824,5.594310083694392,10.907338681919212,-30.86953768103014,-14.571431534693302,25.432526790526357,1.9948873092999513,-6.044252985821267,28.375570754714076,4.184813564320008,-38.328917220799084,-11.143427312556486,2.294205551590921,-30.31591385982724,-9.482376693739491,28.474826470985906,0.9230482832050022,-8.21328338370962,30.060800024020644,13.333851487916004,-24.038119661903924,1.7042171692789303,9.440229605147195,-30.6844470988814,-17.72212905062149,15.47037839320322,-13.447495093664864,-23.481412046795242,13.702591779089323,-3.986455363828549,-41.37677517629493,-12.254244030774947,2.670166263539832,-28.587231049726697,-6.767446555312752,33.31335199993362,8.078541943090004,0.2693565922653771,38.80684637679933,19.11247274558464,-23.367912576779325,0.4326146679179992,10.477795846308073,-24.832535359371388,-5.996075852765189,30.29600392556439,-0.27849128040809745,-13.176815884549951,23.601647732966214,8.108151821554603,-26.019339439569976,5.733858519036438,21.096120049555804,-12.906082273704955,3.234553765363996,36.724839258369215,5.950428076867322,-5.996552469809981,30.99616259054671,13.3488203087952,-27.149160441712397,-4.819595245935581,3.1109803275343655,-31.661283673790518,-10.071513424076619,29.198355353335028,-0.5263742664356883,-15.576305958532071,17.82433740063935,0.22988134331276733,-34.74507508502957,-5.6143411494109845,4.749048823216308,-32.28952291971374,-14.443077072639442,22.80707010993945,-5.800887965870867,-18.457121475122648,16.28744626549069,-1.3306517960546405,-37.725731972253094,-10.529483404642027,-0.45013118851398326,-35.987469428550945,-15.65371350962004,26.01486674485821,2.4177983127298823,-8.34130506903259,24.74236881526369,3.448569031332564,-36.797930588002025,-10.170279016054801,3.2612113074006346,-28.604225261140098,-7.409314344524647,30.22411589448962,-0.7056038891504315,-14.862054576993016,23.19974887424939,12.96800179317842,-15.324001129144104,17.199070948414327,26.53840767457754,-15.438743119947283,-3.8926399979472635,28.43676883741107,-2.5373378041450856,-15.041043702495939,21.361696193689742,5.45012500485443,-29.675160025930197,-1.3972990321518743,9.113446702809451,-27.843002753225367,-11.994355693311471,22.638007935480918,-6.22121238172252,-16.070024452295446,22.77942888764222,7.112248566222098,-30.941789624802254,-5.726016236757609,4.829204282749035,-29.170839004398438,-9.553130212778067,26.16032360189314,-6.375350543451173,-21.065815749782008,16.799080757510147,4.935227808161777,-26.849419514950746,2.4803727003323317,11.252188751923937,-28.121220990613796,-11.009429956232838,29.523324391312126,7.049205100593653,-0.2797577774963358,36.7004388268409,17.708067477180737,-22.113318754063695,3.2172618731980656,14.21171028760428,-21.1396664117093,-4.2711286715020815,32.00996495058526,4.837339694273577,-4.725510314572551,34.77298357147967,21.517325420504967,-14.500839639652192,9.613670328567059,15.266804953717788,-25.209534954396524,-8.866095864507459,29.37766762128446,1.3713421427416463,-12.558527128288414,21.612744322615,6.222072412324751,-24.911294511814283,7.471322011875653,15.116971068989034,-33.540251951707226,-29.809352351285355,0.5336197733216892,-25.072033846989683,-28.875089156757983,14.886085497194731,2.389290858152833,-32.33311257358273,-3.440964607680165,8.599757408357913,-27.676006992196136,-10.586822622409294,28.48867780478338,4.047727116983783,-6.116333647686165,29.38305052768739,11.050659170806359,-28.208600598415437,-2.9206134080261545,6.9810507476844075,-30.638915097642673,-12.947033966833457,29.835115396425714,10.562222135231277,4.71622870373742,41.98771736057992,23.09366841728844,-16.621183207750875,9.864675850891045,23.129740946579346,-9.487171334838836,10.066166759543806,47.025799845578106,17.186704655505558,2.463333927922741,36.73422994918334,22.12400519742286,-9.792136792892734,20.26421294964058,28.362858725598187,-16.149813507049547,-7.96555047447916,25.267910402393888,-0.9291193262166253,-10.429664847556776,25.91638573040041,8.163204893107855,-29.41413364321444,-1.0769350575794299,10.788483853882248,-28.801147005169813,-17.243400561833724,17.829874896422215,-6.9217744653129625,-13.662828859460577,25.388165090538884,7.100358684441623,-34.121407087271635,-9.955215521085849,0.3868211532978938,-36.43915300002726,-20.806847619145962,16.012871213965504,-9.752141995674927,-19.690836655055993,16.500135851974207,-1.0026989575482208,-39.25304818069504,-12.453924919346669,0.856081651604621,-33.247110061838185,-16.96883376174779,18.465501130073914,-9.633686771956866,-20.11523028744116,20.654398452301905,11.754323945259388,-18.824316662756516,10.474719377657655,19.57871332921874,-21.810181505594528,-8.977544578904817,28.32318667373532,3.1162108573354477,-5.860263203413228,33.652348126481414,19.598045365365877,-15.936786050828863,12.464861069853992,22.780432834927186,-17.595329148379314,-5.780837547972656,27.389120208206897,-1.8433493986158744,-11.699073600068395,29.561043468769704,17.879866693988085,-18.335937225653424,5.130103090436675,11.039286768417155,-29.585658246422504,-14.427226065091638,24.447084592015702,-0.33278856301100035,-11.220602863498076,24.858725419329893,7.7413836225043635,-31.65726318520961,-5.501533068774709,9.779857513522286,-20.700031909304705,0.04165467141785051,39.182970373425675,10.731652976029215,-4.495357869449413,29.12822521340548,10.948462799963131,-28.971180326121612,-4.060124402666057,7.668015501713414,-27.174562190179607,-9.49540801772455,28.29822285483494,1.5377122261737846,-9.389798353421504,27.711178052315407,10.688818118342466,-30.116189147668337,-7.251098684272765,4.004397568633087,-28.492008564767602,-7.035926698449163,34.18062790155339,7.448681785385812,-8.11386890839446,23.85589802659934,5.862895896417461,-31.764589155040248,-5.623291365192198,4.1805531182746165,-35.14927126971925,-20.00683122026015,21.556812270821833,1.6444766978614709,-4.763714529750148,33.89300011315883,17.233626732403867,-21.984216374413727,3.723686402033149,15.042004890917994,-22.250715017601564,-7.2657008513822205,30.41189072860632,5.1075215407356005,-6.597718966060416,26.91107448554118,7.348401522626846,-31.415220338791137,-3.2842568587844845,11.188916561016942,-24.44736017962684,-11.556969679175737,21.23829445333387,-8.969595626500812,-21.989815950216805,16.569832023228535,5.336411266988264,-27.038079570458137,4.605107321853652,19.15871836374231,-20.200344355707227,-10.091761658038504,25.30541271977219,1.2831043892773017,-5.555882200532575,36.59151473956427,24.18033184438047,-13.743256695284929,10.7268775348698,19.855918891234207,-21.34006892613749,-11.848523339566194,22.105327572292346,-2.1414317504223916,-7.757685284317239,34.467437382147466,20.1870248369253,-21.609325068645386,-1.217899377867635,8.6769529580268,-25.24430279789278,-6.480928965507161,32.01523115091379,2.850190220150992,-14.051169354040967,20.418377886725757,7.292740996841051,-27.823555838662852,-1.2088023260724086,9.09137029641845,-32.20816278425616,-23.46249097996471,9.570453866678108,-18.22875962999884,-29.525071063847154,9.548245816371622,-3.8965090294486426,-42.69738305377866,-18.786472926897687,-6.762142516719367,-40.27897718311792,-21.235987829259393,17.931707873027072,-9.885213008127497,-24.281469402854608,12.91006101658186,2.566150459387158,-28.45374358728563,2.9783622936359073,17.25556174230822,-21.679609647131468,-12.814775363056459,19.45412544025084,-7.06456602135075,-13.778757539795876,32.306296076284895,24.18651754633911,-15.994051350041975,1.301332946657606,6.917550943417293,-30.282203122116286,-10.616364900048639,32.904429235378515,7.707831910732208,-8.712994798165825,24.625141500052294,10.469884610938946,-24.48057359966639,3.8665743741061647,16.90529519955549,-20.68904521830792,-7.948261240592462,27.091363239889276,-3.0809920409388702,-21.613914491213976,9.757180174739576,-5.555170616505272,-39.56584485525798,-8.113230927297256,8.731500428897814,-28.064715750096752,-18.247510717534386,15.101241433457751,-11.499862892053514,-21.46512057766007,20.173264844521327,10.98559308527223,-24.678878250340304,0.38259465883344745,11.51901079029742,-27.43862261037445,-15.71181426088704,21.428312261848582,-2.739968460027441,-12.00634323578999,29.38751630410178,18.751962100234927,-18.74625708525516,5.848657104977795,19.23033689977848,-13.451630630971655,7.215803363344072,50.638039267794255,25.359913112769853,6.975261406082916,35.84470749265744,16.951493503040144,-21.228368504263834,6.330883316927444,20.516293374514433,-17.146326683059762,-5.68248534485007,31.49592797606263,7.320942363556895,-4.693262687312963,32.16474313697752,18.042479805017187,-21.444212021450525,2.555298475172581,14.122313875547697,-26.341596771190872,-17.333840670146273,18.280526734242834,-7.728063818307723,-20.619082148307218,17.661985344761227,6.155807332429548,-31.071736997937833,-6.720429694358213,3.927728240492921,-35.120921650955935,-19.950586671263004,26.31257018596921,12.028558126683073,4.907177554067645,39.332074130843026,19.251741320599617,-23.999827535091796,1.189995474297298,19.485811156660393,-12.034887268408463,2.48854399337427,39.967604571770934,15.068849711283104,2.180023256899543,38.57979248661887,24.126016742319884,-15.807914001505267,8.760853194095413,23.434363386773857,-11.847162340157341,1.6006396792033364,38.374877514171885,10.5204805683472,-4.446333891970152,33.466020390811714,22.013260358836916,-16.789900614958686,4.732433754928673,13.271357253854005,-26.26129114743502,-11.644490709439513,31.111600601569346,10.249039809319665,-2.296946235532259,32.83066082034218,19.47696682527359,-17.005663011514315,9.456210713562918,23.49278766951401,-13.057717151398338,1.0036006223262621,43.27279491909805,23.44140879719404,10.959175828361868,43.34592152598091,23.97348024571999,-18.996341940778493,5.5342817715756745,21.490555200061063,-14.843429902662923,-4.984863727716061,28.978205103905996,-0.18452100909685498,-16.613439356095096,20.359145631241777,10.487144094088768,-23.564953994620915,5.381182715498113,20.08320015670604,-20.862736290851885,-15.972051350590315,14.217059696240256,-16.965888108765952,-34.837418341144854,-0.06442152192451545,-12.151685116898063,-48.08739253080035,-20.532264768013043,-3.9161194236749823,-38.035961007882634,-23.741594019001095,15.79642243953622,-8.61662984227749,-24.044421279887544,10.772540123125228,-1.7974338001369858,-39.13471103495369,-13.39969182961351,0.4244713562767739,-39.2815399546213,-31.898484501112854,1.811791366312681,-26.620567777765594,-42.60764228058502,-4.937616657299742,-14.754169563203911,-50.823522888554095,-23.736298687084698,-7.0593498349662696,-40.884579221671686,-24.483234378170035,18.228890478072678,-5.034759267259961,-21.289938546626235,12.927962774096969,1.435485831596461,-32.59778310061212,-2.4271377678535018,14.911148057695144,-24.060956087158107,-18.737148502868386,14.293583931987005,-10.578929697550567,-22.76787037319375,15.10757500793442,2.210081380921814,-39.84490426597106,-18.566480633591077,-2.9114130234592093,-35.39534489761897,-20.390070118522956,18.686198253608005,-7.636080404314303,-24.476784837337657,11.461592248054325,-0.01841408984412851,-38.68099943409801,-15.041034834539298,-0.8714113190647925,-35.570801792401085,-19.626531278428367,22.157312970128935,-2.5781497066144006,-20.50247949923454,13.207923278838754,2.066241004622279,-33.37336414892605,-6.098792665242559,9.76666728114187,-27.645675255470955,-16.961578011107616,23.725787170383768,3.5423861819284,-9.185651813697987,27.35941032641754,16.12947261903917,-21.795006390105048,3.5136319902238498,18.964972820765215,-19.290305632142513,-9.59254447524435,31.194686484127857,11.616135172954825,-0.36312348802660543,34.97490905189702,18.45881542408415,-24.859625300109908,-0.9254875062228649,15.529740556238728,-21.315402414692777,-11.844290125609698,24.821106515981953,0.4784992722132628,-12.81068845125509,25.036233192820355,14.528493427573414,-22.99033028905243,2.7889981959086327,19.154914849246207,-18.956284948446015,-11.886943718291114,24.57664142377437,0.33631658350543603,-16.336489784873773,17.878173826443742,5.814806502399092,-31.906711794105853,-2.8681693173582126,19.976193921256154,-12.69176198192387,-2.830181150022831,34.092070431829434,8.190488939044974,-11.034517179117344,19.839652856105047,3.484379340107232,-37.2711326227049,-7.942419862900044,18.890593994949036,-7.909453356757142,5.020991739928764,40.14664249818329,11.362094991395674,-7.863573042339345,26.88099964622441,16.764781596554172,-20.044223570565542,6.8256002195355805,26.29694137148364,-8.551823413503918,-1.765022296630292,30.331595601051028,0.899354258862477,-17.909489090581992,18.178275639278485,7.909715003346987,-32.8104553672922,-9.79071342149575,10.44227824125278,-18.256508937474493,-0.49583695613345036,42.654369859972476,16.94070805240084,-6.048320135954581,24.286029450190092,12.533216977363725,-24.461670117687472,2.7239253868067337,22.484613628091367,-11.004273514881456,1.083398487056078,41.18658354429825,17.85002362568987,1.1404661539501033,36.489549694983424,26.37388167354895,-11.339148033293093,13.382129773928742,29.921822055478724,-6.950168897850393,2.0231788087185354,41.60540171038764,20.358907583951428,5.061295535677791,40.8001266874963,31.134588644221754,-6.702421611413653,19.01033676154496,38.31877083116305,1.696911080241918,6.6290597007753975,40.16746980681455,12.351080687324474,-8.521591356715897,22.793039363315273,7.578478341967584,-36.00577518621796,-12.473706881801416,9.903099641966396,-18.80275240215932,-3.931601805616854,37.4479281547981,14.379520440343061,-2.9565963053898057,32.37565010044594,21.305954346769475,-21.13556847851764,-1.239964934473596,16.24861662942444,-14.454695167594874,1.0007412504916573,42.41680400635009,15.14447057535271,-11.241782447222494,15.820869537208731,3.2758060130314632,-33.58950197126673,-5.788000061990928,14.47234906702954,-22.16561028998911,-14.996625099919244,24.68623918071653,4.5361554284033065,-9.522012337751674,27.703169934696405,16.805105681942603,-25.279591134543466,-1.9821055705685744,19.59755700232518,-11.98694276456852,-3.083235822769554,30.91421279654984,0.8442249094794683,-20.94084849724107,15.534362286550708,10.146927185293398,-27.405332485231675,-6.331712575548597,9.119783775709305,-25.491718604646664,-12.480776728402992,31.209372725917547,9.162990968881171,-12.777679659217885,17.484786543288905,6.410617261798722,-32.93136338783543,-10.169501500296349,6.771890784460835,-30.12517475994979,-21.452010182521363,19.611807229838025,-2.5391433819975973,-23.33260991044828,7.333942002487396,-4.373451303616674,-42.57977086001195,-15.029967263645377,8.746768206881182,-22.960906696380363,-14.476138968648298,21.01878378946244,-6.740121649113114,-27.549805396004327,9.471847635415237,6.8460132966597556,-24.981768856290277,2.3948896518314946,20.420178023332138,-18.28803497246532,-14.079836950793766,21.683977689747373,-3.327425476693314,-22.69142591706196,13.681563996614473,8.463806844915496,-27.46069042278798,-1.855603182709281,17.915622544317422,-19.558106893267343,-15.51591595917598,20.37852414902771,-4.732985874829712,-24.475622923365787,11.631557947862383,5.034215814467883,-34.57740684744221,-14.599259809615674,0.7245058802933917,-35.3383647159977,-22.658587093167018,26.05047001881793,12.707745099545818,-2.6184570878367386,28.31515438364837,12.904613116320403,-31.63703618211362,-10.613456447461537,8.8464070642559,-26.219195889244745,-20.13064623963639,17.536486816997638,-5.457403659473556,-25.579261744048473,7.515034204244671,-1.1849080351835326,-40.008601576276206,-14.96637950432829,9.014606270618806,-20.961816130781486,-9.584473665653503,32.026745814841995,9.049149231633486,-14.261449724308967,14.575372850104737,1.057601031303708,-41.754588589964555,-18.57254355023842,4.167102092404964,-28.210464349340587,-20.76535833971132,15.674079052156042,-11.149908376160619,-32.46459942907325,6.225158665926074,7.536122198212658,-21.955535081839756,7.877162970511758,31.22515443420516,-3.4325407873885396,1.6186962105496008,38.32626216173446,12.43216889890584,-13.102558988493536,15.762713899916296,5.339929872888423,-34.96118460766926,-11.30455749601424,11.780278125312233,-21.03181965988403,-14.291782472732745,24.35390524350495,-0.3388852505816331,-25.46236643950398,4.731907271180955,-2.5203571142211985,-37.00411219484888,-5.587467628448151,23.914998037642338,-6.330649100119725,-1.2525798783280706,34.1787091751969,9.905101686591957,-10.062309577084752,25.9568436442634,21.499115195579265,-15.75727802677856,7.768090336105013,29.515943740443753,-4.649646848870244,-0.6235580417021751,34.34297076534303,7.160659739111546,-19.045539092068065,11.696753877207085,6.671481251994544,-26.310621596424888,4.898256348148092,32.793006530016015,-1.6865317748156023,-1.6972856429315266,31.591176173964534,7.3372196718583815,-12.144101073466196,25.129405950226484,20.18423348892471,-21.150535540666954,-1.8639918178105415,18.145871938668364,-15.747886319374505,-9.339911615286839,29.965650254434664,6.9112460375625595,-17.822984863825496,11.089393343880282,1.2770486657153644,-40.00861735709914,-18.978566605550718,3.809842416635015,-25.57089420617576,-13.83996206859569,30.22822369372504,9.03597641558057,-18.005638447645495,7.592712616371429,-1.942543032139925,-36.77794612554877,-4.554704975498517,26.456448331660752,-5.176372374024165,-4.327599376249904,27.71966479462163,0.013498386382014615,-23.90500207554413,11.257552459227941,7.909757757953985,-29.567871298390614,-5.083275981484732,19.90515820510566,-12.373825376113578,-7.48531239283178,30.66011122332478,8.421356324806084,-13.079610537160198,22.032994746159996,18.9845230862144,-18.846607172658743,2.543663871170752,24.053505297456013,-10.869134463646123,-9.695529789192339,24.526786730860756,-0.730574198789018,-25.70563364887515,6.190901122916703,1.2908330472484035,-37.88149402190785,-16.2581993917076,8.719894160465586,-19.92139979052375,-10.385684279522156,31.435626743877812,8.501025582298478,-19.113266515658246,9.417552368817287,2.951778231052703,-35.4922662507742,-12.50904748091232,11.508021774698022,-20.33163134164964,-13.279915286962028,28.836327592490292,8.917951141284025,-14.685589575953646,17.664172361979425,15.265918947034043,-19.477206086715427,5.744207738775584,30.32774371751135,-4.744062451879788,-4.699591040735922,32.5869693126933,12.774010668523626,-8.322184387968285,27.404114925776476,25.617480561870963,-14.930666694939548,2.2036467085911386,22.349074647681842,-12.102528849891222,-7.698886086624006,33.18916299244102,12.34246535790135,-13.208538638868134,16.908122036814753,10.8411750634921,-30.02844492362612,-11.684342525086606,7.278118639258366,-29.786184150534403,-27.147582419167705,14.334218743549046,-2.4311936542305457,-23.39709836154883,7.960319686917055,1.057995147033747,-39.485824971887155,-17.239609155159123,9.620330029968281,-19.58836024294206,-12.91006184458362,30.583777667356088,17.002752198426602,0.9298437483106872,36.986722230613395,30.353730185954188,-16.203866372504212,-1.5751156038948952,21.3003240530891,-7.2794135511342315,2.588984128810278,45.80624978786608,23.145192314753714,-6.379863872762789,21.422725964506746,16.168338050179678,-21.411321459101423,2.7642183735396593,28.31781946661409,-5.089756621175582,-1.98402325229796,38.541297255785636,19.003983023717666,-5.782731220079579,23.37661012293296,15.274784180827341,-28.03705618748706,-9.49927498414565,14.77323890145012,-16.316151627322142,-11.80846883071944,27.994355105276988,5.509565262111934,-23.99277458788389,2.9511157529188417,-2.420503523551714,-40.18264497395484,-15.62781249203142,12.111466365941357,-20.182527355239984,-19.10476507439691,18.990091509660907,-0.6593464239256956,-22.362896884009626,12.779355857214423,10.604457111359416,-29.011526105618728,-8.006260932194078,17.614620971493384,-14.146651510166132,-12.317816946124525,23.632660659669277,-0.6058626979508155,-26.555765419610918,7.588111200872689,8.959387213817479,-24.816362407501686,1.8271394256885642,32.5867975116878,4.308663073521908,7.382720688644277,42.80617766879148,13.83272074066583,-21.431111498340933,4.0662758731319855,-0.40193701364890977,-39.3633959082501,-17.024944639694034,10.193059257895875,-22.340676604374288,-21.463688226702516,17.640926975445925,-2.9037635239288715,-29.223902956007848,1.7773292630871431,-1.9477369701237466,-43.46919320382637,-25.500972167779707,-1.778978680828394,-33.631258242501744,-29.965492408962778,10.214757036385393,-10.186088378121163,-36.815852880177275,-7.437864909078273,-12.409708431596618,-53.55405114071667,-33.070487825082566,-3.4898551101634308,-27.76064984328508,-17.21834204902035,28.48871333489216,10.133127258655264,-17.860444607423364,12.047496496220221,11.065516101176113,-26.599314188070366,-5.323948343405021,20.64650195026896,-13.21942421702009,-14.173348227192745,24.522552398042222,6.0883216319684905,-16.583988072039507,19.654306476976785,22.127886722158905,-15.349712337744068,4.169916878732508,29.103946254513403,-2.7169549623925846,-1.357304322694465,35.338368152689064,10.597612074107118,-20.329040820859944,8.852732525660867,8.791052633833282,-28.238847313546728,-9.091483241092382,14.273566713366176,-19.751467685621883,-19.34438750126018,20.699678025142887,1.2930736503062228,-25.561747526963195,8.291310558751757,13.500275680809683,-19.23917899994761,4.379533908296233,30.913038218921773,-3.667125814931225,-5.3056125826028175,33.49182481816689,13.794240098937495,-13.065490269446112,18.063581005533774,17.15422387710781,-20.82049028656621,1.7042282491434797,32.41281173878686,5.437055681730234,7.99545969665586,44.15705427726006,19.141754651735987,-11.868921049412823,18.063466304917004,19.77335975398501,-15.2795543617849,6.582064634415353,34.16832259901954,3.3429710909046015,2.3349706877442316,37.98511276257383,15.189685657013259,-14.878792878600201,13.373599439976525,10.577446182736333,-31.50001721390271,-14.502914447922373,13.514243458882955,-13.3370827140615,-8.04129476942078,33.47651063849099,11.726984950178041,-20.57680056521897,6.836879345071143,6.117224503660371,-31.097483466891326,-8.975285542200123,20.02689711835064,-9.915496111709851,-8.012990080343554,32.573484895494545,13.923340848558183,-13.029308495163281,17.91691585265717,18.210673637903092,-20.315268541254312,-2.3510699931164343,22.026689614227678,-11.68084188722256,-13.015551650842216,27.381382423545467,11.725890982813649,-12.156244097504231,21.415622859749433,22.449508696163786,-18.793137462232522,-2.667981896283182,23.425766522669022,-8.738055738549779,-10.610532462772472,27.454640881978406,6.822726531964374,-23.636424820730333,3.5874693847219348,-0.35115288466937145,-42.73661264531369,-22.59938488327672,11.639434978409007,-11.120921404163349,-8.277049514912887,27.415411345043495,2.806932454185622,-28.628994702131504,1.2486292704462727,3.2045899857260425,-34.10323997590072,-14.414214843155705,13.802969803879524,-18.50332510169013,-24.87285422891636,6.8056878564140675,-16.702970136852272,-45.25644643812121,-12.597476631475853,-10.42275616252033,-51.0861763728758,-34.21512458479361,-4.124047711966096,-29.304508343148896,-24.196141708837686,20.466507593120234,6.970507025366274,-16.013260636900498,19.52573021129021,23.564963517185888,-15.236464427062929,3.058842826559859,33.242478240510565,7.51165340514747,11.164295690359323,51.617553360071554,31.0063020263099,-0.7178895146954432,27.059520823615024,28.007729369886214,-10.106351506449942,7.772006004195292,34.23623799875549,1.5507094814665372,-2.563583335795424,34.692401498426605,15.987263444934316,-13.422785337192654,15.856573111903982,18.2092925681473,-18.74591028044646,2.07013158025109,33.28090361899753,3.554627364611738,0.021067503459842207,37.152214336820094,17.80237277149609,-13.176519543153248,12.512729746989656,9.150084840178277,-32.822611351191,-14.13279110536133,17.564882888821295,-10.452334017986752,-13.273245364510544,23.076113301619323,3.925057076855456,-24.549627792401395,4.568036962102031,3.660397146952307,-38.337447940387314,-21.240231550555425,10.192043910351533,-16.799725998492804,-18.886165388094852,18.355271497516267,0.03720644600530143,-27.549719298990485,4.799020444329219,8.430121804007676,-31.496523453117895,-14.826682980130805,15.504656240347622,-13.052235357612476,-17.081942437001604,18.23306065709246,-1.248233527071882,-27.808937444225442,8.167167620894723,16.220513708846585,-21.798585413284115,-8.263569906117418,15.697885592934222,-16.760484780321637,-19.357125300457504,19.493007422701684,1.0148353108887935,-28.903599332098956,1.788197451564244,8.508728951199847,-24.182200541260812,-2.767459020751181,25.93051333622337,-7.739135060399413,-14.984967284370972,21.979393360863803,5.394108919327731,-23.459409763776065,5.259923510819544,7.0315283402714845,-31.832304290142606,-12.403119409293046,20.670697833912676,-6.592597454178616,-8.96742425285307,30.236052633259245,12.84599662474852,-17.548859299460336,11.540564412277051,14.781099146181408,-23.783825643535188,-7.19902044520734,19.921607154062382,-12.49929641127175,-16.08523244020008,25.30522683644114,11.584094957719085,-17.412423764685865,8.149014012441496,6.298289285418808,-33.99495291763736,-14.463868858293997,18.330471768221553,-10.305444839872886,-14.972200265357134,22.99591704262032,7.0367141197084155,-21.30425214226032,8.062420722189298,8.886056916715859,-34.035417837853444,-18.354833484080572,14.616093154540415,-11.12782252186778,-12.45618034053626,27.658344160187713,9.872655285632893,-22.800024902013327,4.972860283689549,9.027311522988825,-28.11678264929632,-8.050041035372407,25.858527296916453,-1.9514104331034403,-8.084110679495186,27.20471035641785,9.95850476742555,-17.02862714613238,16.77091887227806,24.7850936460288,-12.316508747964024,3.833321872669897,35.06506825094684,9.016593721801467,6.1449865645223,42.22666283251573,20.35780299175076,-16.069973940736688,9.522597978552716,14.647781300952971,-21.165814379919937,-1.07162360321243,33.66983665516446,6.707005744776705,0.41979239356502296,34.844882433595906,13.318510414926386,-21.287741338086697,6.799629149132919,12.839288922669631,-24.47927526274775,-8.376820213853737,21.290065282155197,-7.867830285399741,-12.602307093531039,24.986817788508155,7.71505767599915,-23.690606922295842,4.318466495379745,10.29720375026432,-24.370621965332134,-4.53491540810071,28.901167074774655,2.1036442665238084,-2.99854308040418,34.13756508736036,17.640116674705403,-13.705464949760671,13.479265670404248,16.348055148203713,-25.463139262163498,-12.618105002079762,17.882450518318976,-8.547839657290169,-10.821264360212552,28.656116224029624,9.779995352962763,-26.661725682351467,-2.0495986352058786,2.4323269046156395,-34.52130305831179,-16.317902593653663,16.80548980800468,-9.586289652447714,-11.962610066055259,29.088385714554335,13.802607591669208,-19.77414511622599,4.288185746773426,6.740008991441104,-31.842385796418824,-15.416637004561172,16.749418351247364,-10.573718006511731,-17.22917667353893,17.143480925673053,-3.803553735417834,-40.421486064637094,-15.02136444980049,-7.214265782744578,-39.77661884279121,-18.639333888377564,14.950605942865465,-15.493301809614318,-25.496097465248255,10.063060163310682,-5.052278951056074,-32.838678509805476,0.3011267527014212,9.484704483660542,-27.70208514397839,-12.056496150390615,19.4059731293785,-8.95846551859827,-15.998517121380859,19.790146522986554,1.988370340428931,-30.815555824020624,-3.8291153314928863,0.7318775528186992,-39.62522539343153,-26.617342173605376,5.604563233785198,-17.335985967578196,-16.7399333915109,27.302689964798677,15.238677592968898,-17.77410818214948,6.1899164671913915,9.815540494154824,-28.102312685860607,-9.646971053763519,26.248193618384818,-0.9904140834363808,-10.833701755629406,23.600623956230315,8.423333112088951,-19.314660367297513,12.7046101914581,19.157026111214563,-22.148943021731874,-8.6671453057666,26.2290853759415,4.779269759081771,3.3519239349010506,41.71035893841926,23.431631817466496,-11.512524098940265,15.63996985001771,24.336608950589948,-11.073752105109541,4.61177334885266,34.945720489968565,3.118269515842954,-8.922893567914016,27.20584765297058,15.412409266319264,-13.035006980542285,15.010945722079857,19.281659538246956,-22.211097866530427,-8.012922665213196,27.55721727441294,2.806252952571132,-5.146399023666887,30.757461351206118,16.383585246707057,-12.736693046761157,16.76663435301102,20.131598186509883,-26.055971582056507,-17.96997618352421,12.571692259731076,-13.853408511719817,-20.816206790535283,14.674609476205273,-3.062038150000074,-35.00606000521732,-2.1004262193031273,12.790184869944284,-19.904646356354036,-3.703550074751311,29.009832913537828,1.676724133278416,-5.777847325118364,33.03548541824338,19.233383866129003,-14.615656022034559,12.197574280595266,22.739646029609993,-10.45297062972736,8.771007493221548,44.90366851849131,17.11269196585385,6.136271792276241,41.82182229803285,26.650994189324727,-6.8806715307426884,19.890847123830135,27.695167897584966,-10.418720532988537,3.308905427229572,35.526812258332065,7.51717895468297,-1.9325787003044423,33.455908237975365,15.5523853069983,-22.82409214686686,-0.9797825499284158,6.736936956285961,-25.714097946811698,-5.397206897079993,30.58447653396791,2.2116813340468404,-10.803996144541841,22.355336167056898,6.283272519843365,-28.605109553273213,-4.707052001257614,1.0121157704934474,-37.94589601163932,-23.912890940568268,9.27140056431168,-20.377442928105147,-34.13495609616794,-1.068000837499909,-16.905502814411278,-49.166626047559284,-19.50177470859688,-7.8366065709121475,-42.171881572415046,-24.21958134551024,12.928530518746909,-12.210434937094078,-22.015395747299003,13.546599792918943,-0.3773132082731294,-30.973561390306017,0.7198933320267926,14.850212656774925,-20.343831257219065,-8.441230935571728,21.90212502550805,-6.777929694891554,-16.627460069462344,21.01682651665994,7.3001355321537655,-28.596478206550117,-5.098063239066388,3.2424038497639556,-32.837213895520655,-17.132216333170792,17.785994813921693,-10.595948858863332,-23.24102271070477,13.32905632780232,2.2038888847192712,-26.707543611698608,6.442021710676336,21.095334731760463,-15.45329706047421,-4.7556547834937035,24.96588959284937,-5.177373555779631,-16.74900751549358,20.203120678044485,7.394140443179046,-26.04976766237358,0.04955885489563272,9.559058711864814,-27.78380663496655,-15.214355372253376,18.28697519314136,-8.08972812723815,-19.334420713293788,14.957444152387682,-1.0141490352780647,-36.310549307840375,-8.722433837183663,4.534154052203221,-30.470608395356717,-17.31249519468513,16.901651607108782,-7.906222856437424,-16.036849943269637,22.280633938688716,8.036621832218028,-29.25807630070538,-5.150535781298645,5.959188470358552,-28.290192344045572,-12.556841204992137,22.50395968648772,-4.9420624812485485,-17.371606858504588,18.617935659915474,7.283823139605131,-22.95173889955297,7.1208942426118185,19.87133419001023,-16.608368617446317,-4.635817399824042,28.654234181217323,2.094336801634004,-9.700489030895431,25.30280921338096,10.943486039290299,-24.476826188282466,1.8430470596104875,15.189214783683138,-17.982525211500334,-1.4392461010977406,35.98049397085043,9.901403549611423,-4.127396072658313,29.447224648572018,15.291948970672792,-17.813241559559508,12.520587398619504,27.693410828709972,-7.906101839161895,3.6998833229358894,35.63762691089869,6.615445534706801,-5.168103105668775,33.928451607678454,23.881137708933355,-10.591253606098762,13.325603051452934,22.607333353899968,-14.945816325461587,-1.849064078787574,34.715113322457725,9.972228054880466,-2.9688328939597706,31.439075739562377,17.46103464822241,-20.483623861132088,0.46543438035812734,9.022575694407749,-27.203902055846562,-11.302503986098234,28.962903738545574,6.832261014948644,-6.156391965901145,24.7807245186766,5.705007568164762,-33.29479210277983,-7.589062636000884,6.553510342170738,-27.58415929811038,-14.810170296481072,18.260188986142232,-9.233808810441273,-21.13288159359657,15.943763215368044,3.2867659546746477,-34.58167030191373,-13.448096896754153,-3.1540502539090225,-36.460539622344356,-18.152039721324964,24.586003754698556,5.4486486532809195,-5.3596339800925,27.72173580620087,10.302129676976804,-31.39695458984592,-10.914811907989481,1.33547247099636,-31.26547095928278,-15.344317668819594,21.3027579712368,-6.192309521611577,-22.565600079493386,10.46680190902026,-2.3181479122151583,-35.45841066257365,-5.646345032626911,12.037499562965865,-19.72905372685794,-5.632560302803109,28.29566209202839,-1.1729450277748015,-18.477089535115674,13.659586869353053,-0.7963219160077362,-36.71606000788392,-9.424293890740515,8.447474674970902,-20.84149590231482,-3.847638903833177,33.346409527152915,6.188324698019459,-11.62244071411713,19.597417807961705,6.502882033161658,-26.820685468970584,3.1667947448443456,22.457733594003074,-8.700980510902143,5.387000727800784,42.85975767976636,19.283132688811435,6.027166234585119,39.717976942855906,24.139985570917936,-15.24657340352636,8.357563140120202,21.83990720327018,-14.050252486651825,-4.106440959228612,28.58546574619314,1.4827846981061583,-11.994939582028717,24.229117704465402,12.605442220559874,-25.049417706650154,-4.439544252849412,5.571708685395854,-29.80309017253979,-15.326697275424355,24.659398249344413,3.4998796164631507,-9.320091315297969,25.352218319286102,14.920676954215747,-17.382927216500704,12.16260256939034,30.281665328773897,-3.3925231383512333,6.536351100241857,38.59515369235777,8.447874521510471,-10.52811015842467,22.43032359189991,11.071286374404568,-24.49463856680875,-0.28774067128281544,11.70160857606541,-26.328937369682762,-16.279517946735957,20.329745414055537,-2.602590726696281,-14.418006724003872,22.764697707934047,12.796848914606919,-22.79925072232039,0.8261465547430475,14.390452442139082,-18.550939628075845,-2.369871879120897,38.803852445236615,15.764562504974945,-2.3156041668295604,27.312625002240374,13.520780537769122,-21.698243351009168,5.494804748925766,21.473303022991274,-15.228349365447576,-6.303294002474143,30.2302294161233,7.027109891702706,-7.692455026905634,25.820628110213498,12.834929888110661,-24.352077104386808,0.2972138197512173,14.052777915996518,-23.815773299694563,-15.57932054121903,19.68559349011351,-3.8632400266165448,-17.472176689214333,16.785776706284203,4.147458250000076,-32.75881980050784,-8.06667836507508,6.70829582054596,-30.636365194878458,-25.332785742848813,5.603830498981575,-20.687593011217274,-34.71958705868542,2.9549484615333625,-4.267285675367182,-38.62192093227097,-13.374464863911733,4.157066299180293,-27.56660929780377,-14.840319896237341,22.9259873345208,-0.8558353912361483,-16.57980574961796,18.58807979416238,9.676417522040055,-25.7808790795732,-2.940813116409636,9.316886389541798,-26.983944125123976,-13.77595324353379,28.411954801170353,9.197057948384035,-6.430567042922523,22.157042241103525,6.426144188146814,-27.857833324672427,4.245199997999194,27.84300234071306,-3.626644052166668,3.3208292876881433,34.601753026353904,9.093630867126105,-5.294745533467125,29.654215570567896,17.58940248035564,-22.510677093538998,-1.7649443030115393,12.753067796453026,-21.857850796651363,-10.55960826305395,28.688986705699435,6.871552778267455,-8.688134492719449,25.51227032151167,15.533374830799952,-19.958317676597158,5.730655197221294,21.610822777342598,-17.45296052732124,-15.436736766843069,13.952109470429152,-13.599328371781493,-30.602460261694386,4.198423149958916,-4.645277395172048,-41.27267902778395,-19.532204044101128,-4.633566634524199,-36.89956452463375,-22.541711067728485,19.08824507949488,-1.2772455557364975,-17.257185364108544,16.376592543980372,7.401876945769782,-28.759411821056396,-6.387323679444773,7.447474757564553,-30.099316213426487,-21.839816416166713,17.012678415610523,-5.278124870350842,-24.726893148916183,5.499262185445723,-4.816443122746927,-38.07614013080487,-7.760159780552051,16.52443877078247,-12.301598045968532,-0.4695907822579599,38.51527822212805,17.833406773260776,0.7992046512923299,29.5641588974285,13.135759758736151,-28.49828583583098,-6.165342992528764,12.436465591292995,-21.051362531900075,-15.38775236335657,16.127780157265647,-10.869799698750416,-29.415704615597946,4.591967870872622,-3.7972976802820053,-39.774143668967525,-13.82712685270636,8.54597693303041,-20.349296740168,-8.470283626228293,29.420689006804714,5.498885057641363,-13.170089078362324,19.843906797745333,10.329171742791294,-26.55560085062106,-1.8809093082351165,17.707769214054395,-13.608065905344736,-1.4853625387518594,38.62584284076163,17.383741163305665,-0.20605920509349973,30.91092260168145,17.926929844211596,-22.91166436289113,-1.627706498238254,17.42765296196561,-13.079125922246508,-1.8412481732642192,37.176269005997945,15.843670712513873,-1.7465261883796015,30.428723413229754,19.464102565913578,-20.581961546830854,-0.11211498173103429,17.112237070641765,-15.66484684062303,-6.402289833264433,29.47364289408133,2.6566114512201704,-19.795106387331533,11.153514161519109,2.6432158518345172,-32.34915254549663,-7.430775891245274,9.823596544771634,-26.533064164023255,-20.219199107879994,17.37290786874113,-1.5774708203105998,-14.35297474499917,21.832190636373824,12.628769547415445,-27.0369603039277,-6.109291714800641,13.918203484477363,-13.40210739335189,1.7544408043460837,43.31228970191947,21.02871862490705,-0.3150349135650661,29.895632829125784,21.352318326650547,-13.856896271314866,11.48015646002638,31.112462161951022,-3.932002580380029,1.4007280520313685,37.27378449364852,14.68996694440241,-2.7221931134523203,32.07714250680205,25.044128411043307,-11.617416118225337,10.025327438290141,24.76230748439418,-12.865124713719867,-6.666860073941779,31.82003128712491,12.035469940634005,-5.600999904198508,24.800134484419658,13.078915161568753,-25.688894445664694,-2.882131407309041,15.697881878235313,-20.126349896438356,-17.706429526148654,14.57495967485868,-9.683933368390843,-28.347614353393492,5.180878951986273,-2.0639896328248177,-39.34573429967598,-16.752769668804298,4.246912643876506,-25.776602157399125,-16.021226950506474,21.799415078290824,-2.2632004989888905,-24.8609275685417,4.859579468266247,-4.190561566871736,-40.79075324545609,-15.681152103202049,6.975301626807191,-23.34581331466457,-14.786264697702107,21.83997295254319,-2.0862963915437724,-22.875269771542303,8.502183787256504,-0.1837208844456395,-37.90433962131328,-15.139260031632404,5.883136208492722,-24.137067521822388,-13.424300947397105,28.053777263477656,11.203137821015806,-2.1558299911802905,36.3632303251153,32.517159307771884,-5.153013995245066,14.101575436922012,28.532197985251106,-12.174876197946144,-11.480966949279267,26.065110660569037,9.502121357931804,-2.6880679719592306,35.6570159893333,27.33647786616175,-17.44201107103365,-1.57054744239203,16.899507119621983,-15.144568715396534,-9.266480950439917,24.931971408278535,0.07244323539095987,-19.02525329752299,19.33008561576031,20.469652280755238,-11.890021616898004,10.060391998720371,27.93638208545333,-5.95649136113661,0.09038000846116212,36.31196069371941,11.28535302326476,-14.497927015443095,12.753439212124862,4.616563616126605,-31.148201782294464,-6.139698718080675,18.46975170454173,-8.797444755430329,3.0332144782975945,44.15144120684332,21.471716388747634,-4.19888025391511,22.047013832877383,11.673188362218054,-25.37823470382513,0.5186646097382912,24.499530388146955,-6.86438650852827,-0.9405792239411284,34.0730745480274,7.9623425093180344,-17.073755116025136,11.393235800603511,2.2460948473023326,-37.54067561231489,-19.29843152939482,-2.8452287527690805,-37.66575181008702,-31.222743883752113,8.862997589378772,-10.168612758883167,-31.43461354484901,-2.115558096752242,-10.033970300267157,-46.815879146722224,-21.9614046517939,3.336880627641288,-25.39864580365281,-16.143780180248484,25.693194383102668,7.3849410389266374,-13.585049767345932,15.555156211015321,5.06563342311542,-35.88136114814065,-14.356180204470537,8.469854337012148,-23.29947444993568,-19.006082682802397,16.280542757571435,-6.658289514539025,-27.17228667072954,6.440876583677547,0.7955117012762116,-37.928842702866966,-16.975285296921943,5.637752146716554,-23.296491621500202,-13.816959035862808,26.815273492609965,7.027465648061453,-13.771410025930958,18.086622876089017,11.068625087552725,-30.12560129572737,-13.27058858070902,5.8920320204300465,-24.471475055574032,-13.927397713845131,30.25170784214778,13.73244256641926,-6.990462859919017,21.664800311166807,9.544854222091018,-35.9076134490523,-20.082982244368033,0.7157125541740017,-26.724341168640425,-14.043866746478388,28.582818601784503,7.697002475851397,-16.49231377688742,12.167951079371573,4.7269250278800214,-34.052598374835966,-15.00572107357807,3.9106283606908967,-28.563657881551546,-20.60503303094803,21.87590837828943,4.815788614724051,-15.942652921906866,15.09989963646368,10.087623701652188,-25.883657995101913,-2.2699582851669255,21.15102197391243,-12.031519900472922,-10.151513250470908,25.69126067223602,5.271605928364885,-14.518148480564125,18.845310439296693,13.058304929429784,-26.42524230633099,-4.826301058215233,20.93281214860468,-5.982798413843165,2.2410840484293546,40.738036293181814,19.89721528721202,-0.9466027330635578,32.0207872135555,27.123821028234005,-11.657265806024705,8.921810205156085,34.20454935190969,7.837019331279253,13.989735888464985,46.89758050003638,17.886088272084052,-12.118841809353256,16.579021798115598,14.945650797236162,-18.324324563595944,5.01278948669032,27.53370829542502,-5.602008727983932,-1.0850773358307375,39.868627709597405,22.60943268173486,1.651096963060274,32.23366670779696,23.29730506106624,-21.796264377483617,-8.516838868192957,7.681421861567136,-28.886428483408856,-27.064798853399232,10.514592285551204,-9.986533048802132,-32.77504040136411,-0.25336320876690266,-1.1847693097215393,-34.775351451408156,-11.331317670638596,11.931394769656178,-21.003875490194524,-18.27704957675384,19.991166998413565,-0.5311693334654581,-26.73004393375722,0.5908225312606277,-3.9923989806394955,-38.58664349331363,-12.55621877468067,15.696198021003308,-14.290823585256975,-12.296178562641456,23.597698986021115,0.9758976050539996,-25.553111455862062,3.1395121895722404,0.3268951449113713,-32.2091227005467,-5.0437676287550595,21.340972942409504,-12.479895250679835,-14.684381673704765,17.73286612077439,-4.010567824202578,-24.287370819936758,10.963457493589537,10.409672993423978,-25.300072559234394,-4.295902213503107,18.894494989349745,-12.385718850459856,-8.916841325431008,29.04413433284458,8.67388140920501,-16.23649192551007,13.097763329669984,9.05692212508944,-28.930873347025123,-8.641328822084624,15.744497372034617,-15.01523760936966,-11.752603074886713,27.4380460699913,9.729401118746303,-12.004178349989932,19.65099675742887,15.210957661577856,-25.535424062569874,-8.227620384307935,15.292021706346219,-12.526202378876466,-4.47411176140128,36.7112015571801,15.612322835139942,-13.860407432870943,10.288388008145104,4.180606118612147,-30.934279459039594,-4.151538140550169,27.02282173525283,-0.4696916455547431,0.08439521158381158,32.59832427938741,8.229704300553086,-18.285075038520375,12.253824364882519,10.651984981667903,-26.769815968895884,-7.447147391156403,16.93186707579776,-12.992343660854944,-9.482737985406407,28.775405846793607,7.942311587406875,-18.312586857288657,11.693122555661976,10.569653583838228,-24.03225086177021,-0.6287784577627384,25.468472372516054,-5.657232050892549,-3.9423063878074283,33.545592704753254,14.068062593490655,-10.170075089177438,18.609468065527317,12.232010653445219,-29.60835522607119,-12.819329514742751,10.70431023625651,-19.34929087094511,-16.651016701499948,21.12582115758979,1.4128757219427293,-22.923851956164867,10.669442872554455,14.592216422529585,-17.623004294302113,5.6359350476023575,32.453733176463395,1.260975579362377,1.0043416877711264,36.61355062876482,13.81159922201892,-15.069580814960617,13.626014515578015,13.639073096573423,-19.09767605145277,6.0935757609339305,33.6265624428746,1.7038102631684175,0.624662358201884,36.72958843468641,18.002013555143456,-5.336462742049207,25.230647476809025,22.754119641386588,-14.321491588489273,7.512419398978212,35.13645743811228,4.637039591176936,2.356334585786228,35.800386266795606,15.16547238358747,-9.739707199307762,19.740655037651635,15.667281421870822,-25.26341579393099,-6.602853670637934,22.15455813754227,-4.554309649707596,-3.922513513360073,29.148215928601317,4.899550015767559,-23.46702269641595,4.521781382846584,-1.2577782590419817,-45.43419045278075,-30.81528274688217,-5.068934171498567,-30.31274749988873,-23.951575078609437,13.433666358300773,-10.897046146340651,-41.400071922043885,-13.583888856631326,-13.782773281027731,-48.227510154434064,-27.060889232214688,-2.2018529312392756,-35.141871090738796,-38.97801098785412,-6.161320173937163,-26.166396807161792,-48.30524871233619,-13.081356275483792,-10.279696963744808,-46.78073573468213,-27.536126234461427,-0.6735817532871362,-28.494464672568746,-24.424408097571934,16.234058043485973,-1.7162560163516645,-27.608378527180967,2.687693475541721,2.1448612235384257,-35.13114246887124,-14.657173101129835,13.038796184590883,-16.272453287223,-15.784896019818756,21.875361150434415,3.8144402733729983,-20.965901916169404,9.550853972682386,8.863641926253738,-29.637358498920396,-12.143848153385607,13.601093770690799,-15.099014346743845,-12.756967712566123,27.554708028721304,11.76496307602274,-12.717815936263902,17.744008647329437,17.16440049297418,-23.22694347248902,-8.030769647245073,18.482345720922723,-6.69631524191141,-0.2515068939458871,42.17857630383434,23.42857480787843,-9.29248490734593,11.540877974593391,4.8969297794217415,-35.486796036974944,-16.43899900217282,12.889555775287036,-13.356831948160423,-11.568874088363245,24.9540488277744,2.9906988451522682,-27.297620107086512,1.0012439272196652,3.7700259100683624,-28.711801283803503,-5.1029846312727685,25.656895598485058,-1.8888544054164171,-2.1178052405499477,35.746474763259656,18.424522214832297,-8.549159583527842,19.111001785737542,17.192009200196786,-22.72775550171214,-5.351151452526869,23.230013077140512,-3.8444133267679135,-3.609627307610346,32.57694240167805,11.479212036351663,-17.567700247072846,12.292402722454481,15.916946332434819,-15.87516834435205,9.977279259390256,43.681566853049375,17.901050875007005,16.52546602883386,49.4357230281514,26.552633562248012,-2.1604610475580337,27.91331701616938,29.832522471192128,-8.743005854624112,5.287164977084384,28.940751592024384,-0.9368884841389473,-1.4291386163455178,35.493931004683446,14.649944453922737,-17.618857431489264,8.089580772240112,10.247780594877739,-22.94885565842508,0.1072780370707509,31.644878762998395,3.811458866486273,1.8342843241383107,39.047447309219095,22.181467395833778,-3.8748146425461396,26.07198080549572,26.60457856196433,-12.952123118915182,3.016318871601692,29.759114928462516,1.1821225240139057,1.3932102731087426,40.244662848983225,23.086431515051324,-4.882577241997148,21.71622921083835,19.608206323500557,-20.039014361882767,-2.520188993595859,26.960488122814652,1.3985033614687765,2.900153864063948,42.0936932716841,24.677452529262364,-5.75853701489628,17.88917958533554,14.179597507971886,-26.762648652936253,-9.782052453990302,19.363952356985916,-9.330545700370116,-13.148045329327129,21.46888293990701,1.6869654532573133,-27.44761674278489,0.47098311617736144,0.5528343844733019,-38.27283937085962,-19.89567106245879,11.019400766128427,-13.597673151443802,-11.330748933190568,28.415361230373968,11.951118860079138,-14.993110630070353,14.821424286940204,17.796684743272245,-18.782802178289238,-1.6772112163371826,25.447591638585994,-3.738343435667449,-6.115758297779394,31.11655098897247,13.879198580077931,-15.634666913693877,10.17529772760036,9.68441177327208,-30.46655159682367,-15.597331954604728,12.209825032504149,-16.105786938776916,-18.672145896609727,18.29901418415151,0.16583499255464673,-29.292077932614593,0.10370373268770194,5.28382091751023,-29.675934415387992,-11.808070686532908,15.751722684686026,-14.135575930975245,-17.16000800793234,20.684150684089143,4.673573328913189,-23.157119262680137,4.455613564522363,5.412009811381657,-33.63718856330825,-18.93978918661948,7.8775448819408584,-20.313317569034417,-21.7242336770572,17.20504652879951,1.7723636007143515,-26.171152152781335,2.826883466255481,6.3120187525382105,-32.08532507195166,-17.519766871225894,10.404833038684329,-16.33249932162796,-16.26152443945326,23.444092708246387,6.114223324919545,-25.83149524642151,-0.31407919058799294,2.0986370962947314,-34.996040485569345,-19.098234086168453,8.128784760968859,-20.914747497388124,-24.21313298116556,11.747759728742212,-6.830098371884464,-36.048109098775534,-5.3944849102475985,3.223652788379862,-28.379551860042667,-9.561440499408054,18.957285840970606,-9.786092966206457,-14.34817008793646,19.857798528613316,-1.4610250652465488,-36.07502340702157,-11.871669585645275,-9.560711301329299,-47.20475743612134,-30.793559314697013,0.10560597263217986,-25.504390795339262,-27.90487427030254,8.569081792696965,-9.973421663790468,-40.30157947830047,-10.642327248212107,-4.339304240057254,-40.54604290959821,-24.502665246460225,6.649515905972558,-14.689820254382516,-9.885357413504263,32.90002728196766,18.725760683075872,-10.948082834547813,13.963374180255283,14.27660856882962,-25.04089978475568,-10.458411856612562,18.75576284482011,-7.120087768765796,-10.566019277965871,22.998186727357716,1.2802057839509882,-32.769072364639456,-6.542741134749988,0.2366907229518933,-30.69317287222613,-7.407459894924898,27.88929135728629,2.466662909864734,-2.7943102159768802,31.64155827192057,12.980071327292023,-18.415367646300275,7.5874440623149155,8.691276496482399,-31.689745659019017,-16.791560356596285,13.935141018251269,-11.789484192201652,-15.25557739925749,20.25142760749869,2.3640731247147464,-28.12921333364581,-1.4328656073891484,1.9036854862018666,-35.43876103997605,-19.198879386999288,12.877248708203934,-10.258001692962575,-11.592652818323764,25.941124944667806,10.151275727959153,-19.494907198679012,7.9344496620741225,12.531754594870414,-24.218966854973388,-7.257777448718237,25.248470584715857,-0.3072519442711119,-5.988024395438071,27.66333878698805,9.003408287860896,-20.94580588234448,9.595225157956095,18.092178891188574,-16.799908096569474,-1.0521198883823555,28.44447000208923,1.8670160317747353,-0.6880841497096788,38.44896407032904,24.52916817531642,-4.714867220906898,21.421294792917152,24.39446485256756,-12.71409579442206,4.893029309894734,38.923537900099156,16.040844627429948,12.776548377859154,47.03632090074485,26.633393934058557,-7.153998547107248,20.01143585298468,27.984523861604657,-6.517034563981571,7.765976672921292,33.61832437597085,1.647079539395424,-5.411324101531667,33.22510809169319,20.68535834933006,-8.375893038259512,17.57668772323188,19.690010427277226,-20.485459530622578,-6.463541570956437,25.306630281889777,1.5954992831771104,0.422908380156779,41.101432336049236,28.70282928233829,-1.2748600307650744,22.721934985350554,23.96779151829344,-15.243316361449109,0.44189963767334817,35.23164321941713,14.538923108570293,12.245385157394184,47.37112035697169,27.263371787568225,-10.9080625503592,6.959839359745841,4.309025265506572,-38.850816601905535,-26.053427415679252,9.08752009775544,-7.560258702431341,-0.9662194129065576,45.32646716277142,31.841679918919745,-5.5708882356317595,11.84884501855925,11.363244906407152,-25.947076676994598,-7.500138313590236,26.269604675724572,-0.9335019904382342,-11.316032896107966,17.308912754224902,-7.177935744439097,-46.648699606497445,-25.072411325543158,-17.127643632248823,-44.680628202143566,-18.81465306620616,19.692522958956054,-5.028126537038624,-13.827715981395055,20.03325888410781,5.712908956956838,-22.971897899344114,5.57964599446278,12.700440318531836,-23.84324792228996,-7.667983378932519,26.879190821081615,3.2799786550382066,-1.9015756005602968,34.50772353860258,19.127211889996047,-11.031904715907302,18.314823793274492,25.92865058030051,-12.76114671811525,-1.8803316545092255,25.834231401475712,-1.812546566673653,-6.6442038345314725,31.908617439891167,17.168657466858043,-16.751792607867742,5.884371566423059,10.464941088766242,-25.08769667896752,-8.153851004066107,25.739914059268617,0.2158964853456311,-10.20176644091351,18.941562312255577,-3.0891834835834953,-40.138132103657085,-16.04249436746428,-8.563232842101932,-44.94079430075594,-32.67382114824905,-4.678792999942816,-34.91105502562242,-44.474358524935084,-7.521378291743366,-18.78916171841521,-45.119230064640185,-11.869542819281468,1.3617868136129543,-31.45530235408541,-14.969815496543285,17.751525665730238,-9.157032207324598,-18.38409688036777,15.756076961683265,1.218899348192064,-27.096021303682026,4.596507267199673,16.675348868659377,-17.964404351322877,-4.622154677729423,27.64939524468384,4.1473707321582225,-2.1341929581641432,32.935255741164866,16.771477170825932,-16.923775851214756,9.181711104983416,18.325002172570414,-18.694959378148027,-8.251925528844785,20.903217352169932,-4.941387706327237,-10.168490229197491,28.321313413551174,13.433793130251944,-22.56896610315228,-1.5548421781138995,1.9846780667897148,-36.15185706801534,-21.095899318707154,13.8225054260075,-8.47468351685445,-13.117896309214522,23.529509612758606,6.695852069503058,-29.51789576607908,-5.062425109528956,7.437525217825941,-19.62832535596698,2.300042011538343,36.47148935409052,5.112584727496008,-11.706476766048606,19.998801885115242,8.862304055896844,-17.54330086818413,12.611783264714395,21.205578762666807,-18.427363702088456,-8.963558041242754,20.679827361065882,-7.359164355618235,-18.11026579449358,16.150385062585244,0.8640541784953264,-32.2734546203628,-4.424142309479276,8.833356999182769,-21.63910956829932,-3.872454629180565,29.127355465795436,0.7812849327451907,-11.117189819972383,22.11458256368148,6.470914158850183,-28.284341489833526,-5.925353176178495,0.41586442367148635,-35.33676187284467,-21.25502425578063,10.581845326095692,-16.759077215459346,-27.91401857971251,6.621366355036283,-5.76497065037543,-35.72213711895716,-6.271283474608083,8.18826753280826,-21.473474789721138,-2.253758185625877,34.93822608994977,11.201889958613357,2.1619158004192958,37.70469865401999,22.665273329031763,-13.480065460731813,8.7908996886223,15.82631017901278,-20.366448384051452,-5.347654934297113,29.64285816516602,4.927694371489935,-5.471652712767535,27.993397028292527,13.573077690168487,-17.337435315866077,13.407612958012313,29.780031453292555,-1.3479248893113862,10.934032415819358,39.246363713971036,9.220660321339698,-3.217715292725684,30.97114272308056,15.366990657067513,-23.124902409547072,-3.2941007924208705,4.562903124181573,-30.098762822329604,-15.821486980055234,16.479993640505324,-13.372065886667805,-29.202226798164048,3.394695384446017,-7.938465984356686,-35.91143178575173,-4.255377644412734,10.483937635087738,-22.9934715865966,-9.807755280424285,23.298735939835097,-1.3977938924332314,-11.119551443999914,22.770689506020766,7.226944623871752,-27.902053339939712,-3.5091800685316645,7.097615488236771,-27.416585182547927,-14.689160938377235,19.13479788892452,-2.3490741136083457,-7.327659522518969,32.28283367119338,21.528469854863918,-12.660967368715463,10.584110587364457,21.080352537553505,-12.732164279458305,0.6391403673839662,32.68642972589557,4.207861394983954,-9.540010198790034,24.748348342950035,11.07480558933825,-27.124666651098142,-11.446330813236195,-12.388103740062894,-55.60082208593667,-41.82946060039744,1.0225095069034378,-13.296782383704873,-19.249963317782175,12.622583090407945,-6.536167886428641,-44.09649737981019,-18.591482024378276,-2.8829486569056137,-31.367169355777676,-13.62805453245641,24.211063972165782,3.2233087483068736,-6.886484968319355,24.214496974872993,4.5286747522290955,-36.95926707068192,-16.495138372072343,-2.631779035876922,-29.03765733942297,-6.911999939980921,34.16220713436985,12.629084909866325,1.375997800203868,35.21435507496049,21.245560272149525,-15.314963153350545,5.436451477925894,12.698034674849193,-23.734648510475097,-8.766274199484204,30.733677174525972,11.720011954647667,2.49263840848056,34.647445290666774,18.193493640150027,-17.07828354612667,10.079562648676418,26.32059882260243,-5.712317062522555,3.736371323292113,31.57310761623239,2.068601490558784,-12.377386295524696,20.458182739730155,5.999502307974922,-32.06379309840425,-11.21335366174722,0.6240947604346512,-31.53806348753997,-17.220181904551175,18.010857972534126,-6.967481711923991,-19.02265329456379,19.673088838041046,15.848675597562265,-9.91847636940497,19.108154919853586,29.808983843496602,-10.072242988736406,-2.4094206370494504,31.291940275894152,8.983081765866102,-1.790923968754658,31.04844484311048,16.319471915014013,-18.647360325605458,6.705070168697317,19.575426762956752,-15.999841569907076,-6.695368868947789,26.593862431211917,5.417859891041868,-0.32678941207119494,42.46400864892712,38.58420734715449,8.592779683797174,32.66526958175304,41.48538580357251,0.6307579057818984,4.516546629050915,31.531557000108407,0.91528586709072,-15.981639678544816,17.83269862881584,8.639969131136306,-23.971015327639,-2.602985807751093,1.8595547795529805,-41.81576556352249,-35.151093637715825,1.015393996294657,-16.643416682750804,-22.78829255408899,14.331973491620857,2.6888485376108715,-31.806010470090346,-6.823516659329304,7.047053522217107,-27.651632509061727,-19.170711877876442,12.90291862493794,-9.336913829702038,-17.306840813700404,21.210503006716312,10.217487367915465,-28.693201852930386,-9.436748358880088,4.710811091765416,-22.26110493445815,-3.0251428837947554,35.57817747161073,10.62757492724414,-5.772117242157998,26.999577430970806,16.997903472504902,-16.44257715753544,7.1577009293758795,19.78685907332615,-13.60903462527286,-0.8352853562717772,34.075479863911056,7.925133226273115,-9.36227812740658,21.440585151420144,10.456179559491861,-21.801182511913076,3.3676296379713264,17.27720441221467,-15.640784470448308,-3.696697061600119,31.274619345920694,6.249325131120196,-11.74753750781816,16.919331861388716,4.5953531362888125,-26.978230422975674,1.7066953527329645,18.77670892947042,-15.617215769963613,-7.802974911016184,24.552004518708927,-0.22886960659535305,-15.190159701270591,16.362446294176436,3.0083231149249237,-32.65760407876566,-8.689693274152527,4.483632633087586,-30.944076247105976,-21.652445645391197,13.063387163389743,-7.181376311690665,-15.883669887123238,20.01966425350816,8.07348948025537,-27.82696919971815,-3.711796648150843,12.02967713980465,-20.173505380264174,-10.611130763216797,20.452337750851328,-6.399095713788197,-20.752946905773914,15.58238261176232,8.171093494845637,-26.016142850216546,-3.7527340666028763,10.285687787539239,-22.2730221309141,-10.437891763077179,25.866448554517852,2.5497492446325136,-13.646766648030697,16.68531756416256,1.6485439658652759,-38.37697459607051,-17.607069401127237,-1.7177029987860917,-31.15762387848205,-17.409640948148077,17.680754762998625,-7.823879753885791,-23.757111499351492,10.303831535574902,1.6793406148399033,-32.30281921411119,-8.684962492575433,7.953178562506525,-21.137313550330447,-7.085224372303092,28.698369531308813,2.410558327484667,-17.418968850855265,13.58268157910738,6.6757551641701305,-22.694109055179133,4.500020832941278,20.46416258919324,-14.041121702416783,-5.217720226134585,30.475431199792013,8.397215480039295,-7.660220296969465,21.26679529941029,5.60321759367195,-32.73757215316224,-8.651429725371024,10.373473604359857,-18.04842373178614,-5.047971020903351,30.17128980558512,5.728733503849476,-10.464344456370474,21.783838107362207,10.044508524821866,-29.287385840786442,-12.84795855019115,-3.870974353551656,-39.85746474217687,-28.609456829646362,11.456081692122876,-6.656256951587954,-21.33545357113159,8.929683951123057,-2.108551724152706,-34.377482013299016,-4.674663255755359,18.5125102256006,-10.601974271248285,-2.6090963322098855,28.754249900796797,3.282097370800088,-12.936262608090704,19.549168385808485,7.988015890559014,-29.581177483992278,-6.961278117140507,10.975373880662758,-18.088497885616988,-5.5645168339282804,29.279679287537697,4.220738711133121,-11.836580617072281,23.377350107296365,18.074641208527815,-13.043832157242074,10.746039006114456,24.1520195452276,-11.392013437142595,-3.2950455779735233,32.24594987366874,10.282017371441164,-7.165680560392497,20.967180629969796,7.055516606444584,-29.83633367567721,-5.061393053608686,14.933946438354255,-14.92624318386161,-5.1419330967371835,29.264938027086085,5.4675811332555355,-10.907168772386047,21.4877051211527,10.146502113685125,-28.126119200943393,-6.478040656201282,11.641684253619152,-15.808205791572217,0.17632788690741386,39.41767038056357,15.491928467172027,-5.810323235302011,19.886583260036886,5.2339694720346746,-31.393361768555973,-6.732866712977241,12.778339413750336,-16.025131118604982,-3.2878131806177997,34.80668645573626,14.024783586513095,-1.834241746180807,29.05496188526648,16.81926259095311,-21.354350399255694,1.102803212333093,20.970174377382964,-6.93753368899584,4.4859550370121575,38.58933201764062,11.329169404156131,-10.520178333517787,19.74888408143171,12.445508107472017,-19.72153890643093,5.989031104533861,25.08349743145391,-5.561627642696971,4.351803035721094,38.76238311547112,12.642411689605431,-8.92269079177018,19.273265948386715,8.753340559880266,-26.757630875186457,-5.902072302131817,6.828373594426426,-30.816316959705844,-27.58940114097388,4.186202806907415,-18.44779106400493,-32.394912199884544,6.262376397801923,7.233130246990326,-18.147971077936912,11.961284049770523,32.56552307016958,-1.117831353268162,1.8188756523749587,29.12089686344269,-1.5121137959729367,-23.217916390532253,9.152115093440816,2.7794026482493983,-30.683323922768007,-7.430291200432542,8.562661139781442,-24.45542963377109,-13.31681270483885,26.827757553597024,8.207408851501802,-7.2822510880497795,24.584550570840655,16.03164511978224,-16.522364050033204,11.61577974474033,34.64116993721227,4.760631496736217,10.868525859761402,42.319028651036795,16.61450008771425,-4.279384026163212,22.83525526240085,8.006716484963977,-34.1564268095211,-15.977453174672014,0.6152016634408977,-30.936389910563886,-21.806644112136865,14.757006118281959,-6.518883117471367,-22.25343797613714,12.404058362992787,6.3514762425537725,-26.903527590321406,-1.387617348067149,18.354131061747225,-14.295257393857185,-8.745164211430353,23.187297368542975,-1.9326506352177866,-19.51548796700785,15.675649074783099,12.614249835054402,-18.463252321604706,4.415268564655882,18.4895007236884,-18.749683590782265,-14.691350157716471,20.557904081152074,1.7537147560200168,-12.63430222302818,20.4460397085167,12.678891538258307,-22.583105371089754,0.34995562305030425,19.441242755868316,-12.522952966576707,-6.800092688292455,25.220304492547896,-1.2237647676580181,-22.426629215620764,9.27068991880068,3.7000199639665112,-28.55664651807418,-3.0515815848437065,17.49192353554439,-12.149600292910243,-2.6238331285529473,31.622442470567897,5.007682364361438,-18.205966302085542,9.630597887860542,1.0068143042961548,-32.89025580116149,-10.912327186852552,4.265774163183594,-30.334620732606005,-23.338907530937163,14.61762412829587,-2.0960534107756974,-14.731741826090797,19.75254222349584,10.51476585683162,-29.871742459650825,-11.490025699125216,7.190719510976724,-21.584215975604348,-11.33941198240409,23.382600211140907,-4.565048342879219,-29.916449580791877,-1.6291295856434278,-9.407388432182511,-44.42612377517344,-22.524650901311393,-5.498046060581514,-37.76321645049017,-27.156914528574305,14.92778853983309,0.013984904000061249,-13.757096846019259,19.04319137111342,11.398072276728044,-23.764974357523784,-1.42171871459783,16.609896744344574,-16.61204340387015,-11.104627105347737,24.932605668856937,6.033648763783734,-10.627470901372146,19.262854194164184,7.502826444965098,-33.18339680178164,-14.036639931936143,5.696555336068807,-22.75264017410942,-11.948415797372402,26.686536471513378,6.385460102372203,-10.693057282919654,24.24068806937586,21.50521350252305,-9.472421900701809,16.038455322891238,35.217656220188466,0.33091361992595125,2.2727949430189662,32.177777423708875,4.903890904386449,-17.254425568141627,14.117972168863055,8.98514290866637,-23.843012095247033,1.6887568255952097,25.068904333233785,-2.8613971828782336,4.676599741199,37.172137996846565,10.271981749545713,-12.38529086744279,19.956684834952505,17.149352247962778,-17.011641393965498,0.7676656939539654,13.692853535242222,-21.916427665853,-15.313109097100426,22.30509734659482,0.19269723963550156,-22.72865510273186,5.543281546928309,-0.7287533394804413,-32.92658214026371,-7.848671488635858,11.159906203972174,-23.91186656949459,-20.004203534696543,16.239158544825095,-2.718466755044034,-19.330332926907843,12.190393305621955,2.5390343790450096,-36.52108579709494,-15.91878960629138,5.400448586952976,-21.897574913606963,-11.010485384148136,28.149794125228773,8.851453218249757,-9.846775833590824,20.82981559405906,12.555369364026575,-25.643811564663373,-4.755113731106244,17.671604894079685,-9.282931914719082,-0.01872082907537731,35.204546583333084,9.609095139404838,-15.076141323290209,12.264878663834704,3.5680486527464694,-32.13312074374685,-8.77847347539058,12.704184068582409,-16.761457649757364,-9.193405438441527,25.62553401107932,2.5419622210896407,-17.25311813195352,14.44378732556815,8.611439131391357,-26.80684174592131,-6.91220338580594,9.398403058740572,-24.73140887448015,-19.84016415975352,16.67729957368053,-1.5804602653034063,-18.21125657976969,13.806287080321452,6.9138588868270485,-30.15768810861305,-9.625384536445411,11.823633492278766,-15.298004928954068,-4.512175049177115,34.90923465772863,14.665602649588049,-6.6462068823916995,22.219342758419153,14.202602342754988,-22.73947512796373,-1.8425763063976177,17.25201682591195,-15.453987792922947,-10.66086987059903,24.314494986907516,2.6191008371834155,-16.796549295921977,14.757735534151921,7.9367592048772515,-29.767099572524884,-10.334839006087428,10.629212660117597,-15.026685486567441,-1.2299028998224326,41.25616252020473,21.862690243901604,-2.5901872742796215,21.85261563108206,11.698742347427498,-26.012339362464825,-5.935311233942336,12.351707499316548,-22.359166436910748,-20.136328700686775,14.77987343761911,-5.275810069590033,-24.407053144266445,5.894128052585918,-2.852134894103518,-41.22471362737797,-18.964424578222243,5.67399617516842,-19.70037558289421,-8.918896986610116,29.547178879522413,9.102228926001695,-9.845595210436066,23.567585996538398,19.993920131771134,-15.212292081229206,4.055834098584368,20.082811038036617,-16.24293412644901,-15.37594628470272,18.555962540791363,-0.14239321628507717,-16.44607338379627,16.14526742942132,8.600034495963754,-31.61071147163256,-14.242176679674166,6.269537110892468,-21.667805153257873,-12.982923149419015,25.71049827380825,8.028070090398554,-8.063779868341973,27.53808355405728,25.039495178503024,-10.660918294419469,8.422165761377807,26.527491423133103,-5.57289658450701,0.025671115338802508,36.02082001408737,14.559936162127013,-7.350705355164894,20.81862627617732,12.863757123952992,-23.959253210406445,-3.1395606577337727,17.900867378582355,-11.788967134753932,-5.846564355562355,29.84161051772343,8.870996170382451,-12.015599082822312,18.774108333960324,15.235559186182764,-17.728303837611357,5.350011972036187,26.79011123319557,-4.740538451485623,-0.821728716393002,34.14369345590176,12.46512603435002,-9.8881081402374,17.473407687419975,7.197844036580605,-32.29564649427569,-10.58518786152958,14.49884133750519,-11.228600648524683,-2.3147711279645247,34.2151648447733,11.795255081701153,-9.438931141207279,23.53546290162952,22.44896104625109,-9.278398383497793,13.891725149354754,34.97025114166204,3.09041283901022,6.488332829075354,41.68460877580321,21.58527121600722,0.9668180828072446,30.827841132949978,24.784690761725074,-12.158369979827894,6.8881762606017425,24.650469241458495,-11.50938971751037,-12.748152332998194,19.270911526790798,-1.9712660719105042,-21.595098450491157,9.572566476619745,2.9336876745922513,-34.35171306162085,-12.189994336349802,12.10575078971926,-15.641374132145867,-9.935719751116364,24.072480785311164,0.8832342145168717,-21.18148066063482,9.583676513444516,4.803321455344813,-32.23381199261844,-13.729251498685306,7.045010825767205,-20.767902818029874,-12.553558901106612,25.095497109724498,3.883452411120956,-19.95659209355593,8.880285069200063,5.9376270611602155,-27.156478629174327,-6.127451644443555,13.600486185636674,-18.122284757040397,-12.623461760197996,25.427979499125495,5.774583878459026,-16.59047259024987,12.138096025647421,5.976263584439922,-30.49614185498319,-10.51539458327872,8.135964575708803,-25.894444173882306,-22.533183741671515,14.907815428971844,-2.1669348436666684,-19.72702802052713,12.797320490906396,10.040014485297561,-21.589358962457347,3.8048620743308454,27.91856384193431,-3.308329649227364,-4.243333612262495,24.588816197456822,1.3444968589810262,-18.305014634863376,14.649641553136089,11.319731353339302,-25.820399293596687,-8.025068865307679,12.606841553915036,-16.198619740392182,-10.008039721839745,26.06556746162221,4.125317192348469,-18.993161706526855,11.11488596315167,7.186855513100166,-28.303983202481675,-7.847389993041766,13.663171446732008,-15.086003213170025,-7.508284129621291,29.403434481502376,5.7072811430905706,-21.982411963959112,1.8855683427405765,-5.8743343421042695,-40.262078343871686,-16.501478317766875,6.805943092410785,-24.30626583356934,-23.203008832185223,8.67509725861146,-14.114461747820368,-36.77042462808264,-6.579703347331783,-9.160793056843548,-41.99490986923112,-18.63519597483878,5.212561843669257,-24.36620724388329,-20.05692432973163,17.09111143361048,-0.5268208546579469,-19.469333342861447,11.883891905677292,6.182910816833317,-32.57432069397627,-14.962596000001376,4.431727535685642,-27.161777303222067,-22.15910643538068,16.736064621298684,1.0423607714631746,-16.747460967719014,14.449720052011445,10.283354012272092,-23.464396634180115,0.06458204484140673,24.346490797149073,-4.9408722708611155,-2.3137728759826715,31.6211754266386,12.310166778194162,-7.145051705707537,23.449289240432503,17.64541674786175,-20.961238475434136,-3.1904381070024534,17.849603111513755,-12.12840319661833,-7.962509321907053,28.19693879710514,8.766515064528466,-11.626472437093092,20.40560747439708,17.219174284776763,-19.503874456121252,-1.1404069873861147,19.032103841200634,-11.571895718545804,-6.622043147796072,30.250187920843224,10.07647583498293,-12.998066497540226,15.293896290628991,9.738432815138147,-27.79496781224047,-10.260997252184122,9.101745641986216,-22.679007108686452,-19.705635543986958,16.496843410006875,-2.1352244122624153,-22.994071267340708,8.527709324465835,8.193745620413562,-23.042272832874893,1.282799613604105,26.94248252265218,-1.2469500042158863,2.3870745698172176,37.05247809208074,14.518548606810276,-11.544321705418493,14.135439995439448,6.77338430981335,-30.531054950720836,-8.750816550215507,17.48173443552716,-7.455351736010169,1.0176616031719146,39.740285953332375,20.793203803227566,-1.521912309973457,26.898826651814513,21.846723855429648,-14.05691435782583,5.3244605889859855,25.825298550193914,-6.397361110901835,-6.61503926291097,24.911309358566562,3.0688081482863225,-19.097085315912288,10.792364537829858,5.8220013595562605,-33.739611950996924,-18.512649777802846,1.872847806317112,-24.796995387234034,-14.250228813849306,27.64434339791275,9.173958839047549,-15.577868316084809,10.886552362142401,5.961206091341873,-27.656157238821855,-3.9107490639905187,21.184687670224214,-7.0727937473966005,-2.857503455596193,32.09040639503431,10.448175242193214,-13.726322519040675,14.052332578123092,9.561015312490767,-25.21490168391437,-3.9129424659818213,19.130356519310745,-10.93640227021777,-8.805556013137396,26.119946091829945,7.694135011590706,-11.948078135708982,19.003804773761534,12.576027594934702,-29.98319520907979,-16.18183669099124,4.966565118384699,-21.677568809793595,-13.372025999835735,25.469065509496325,4.545605839724164,-20.557114908210185,8.460619790272984,5.8339042213155,-29.15013028236121,-9.62242637629817,10.549672406409112,-21.884059814466383,-19.553198403274013,16.522868005717946,-2.100835026553151,-23.43848832970924,5.893478995790305,1.836314363868035,-33.3421518357027,-12.813557170193572,10.088775020384007,-18.828092324612633,-14.357728385864002,23.950184573099754,9.01430418710927,-8.858563194032998,22.56743332801567,18.02030306895883,-20.42271576166569,-2.357670594655911,20.589476594759,-8.444482654515857,-6.215255119472411,27.320021836082628,5.831841619208543,-17.22368868110016,12.780992641905089,9.328196870734295,-28.14669324386478,-10.848647672501036,10.058758354442215,-19.594969182006913,-14.708670434912406,23.592430558175586,7.052638299960993,-13.001126287346532,16.648771125023064,12.03981575536271,-24.594540845547964,-5.161826666585647,18.123891061660093,-10.672402621381146,-8.109151540142365,27.5283155161109,10.480018776047924,-9.092001388488974,21.700438571458953,17.40381608841635,-21.596779283618943,-4.010332961635433,20.476810698800932,-6.084951582617434,-2.463681840826313,30.07980597240762,4.528217228876208,-23.577921360789617,3.8933242526023157,2.1002761443114206,-29.184128032176247,-3.021370875274794,25.3355421832362,0.11251633446547515,7.700478580893952,46.74800970510766,28.351675027477995,6.201391345668495,35.159089526412636,29.61881740913061,-8.905380143207797,7.570307453773395,25.958325038153358,-7.271921354328828,-4.595601644776926,35.14648846808835,21.70508980510336,1.9553614996759237,29.113079455675646,21.148116645158673,-18.48893912984631,0.9235519834074868,27.250364471181875,1.0314097459422271,3.566755274465775,34.99827021043838,9.16582821696035,-19.23453088686086,6.705422398892223,1.1758376819206564,-36.72525018120431,-18.706736055320338,3.148051337662978,-25.717313311238,-20.067513998686728,18.412258714519552,1.1292348095752374,-18.10937154326256,16.985372882238046,20.296511542472068,-12.314060576100813,3.259582303293721,16.444619917475567,-22.569441841333582,-24.364755654876028,12.569151519045088,-2.7570216120031237,-23.03828764296575,6.777406726777283,5.077353803219513,-27.586078005214436,-4.979141209625116,18.864216293604215,-12.607142638930132,-12.535864933286307,22.512198427145,4.679262833171672,-15.54927586092487,15.931197278610533,13.406676217289348,-22.227195232195875,-2.2570993091031593,19.57772168964561,-12.298036135974991,-11.55157976319117,22.14949650451996,0.6643088065406051,-24.003767755054906,2.914016074415546,-2.7899064033082084,-39.70489842151279,-19.814207281197717,3.6301580617234483,-26.162560353842807,-25.210212329284314,8.47184564527841,-10.94635941757774,-32.76710881845312,-3.070637558779442,-5.91093542480231,-40.75202093930521,-18.513213476265474,8.93724802199422,-16.446276650465897,-11.348652326534031,25.884204399449718,9.069074286184692,-8.850553515749647,25.805911037523913,24.06901876676735,-15.639086334786445,-2.586278594805549,13.935370324683035,-19.041186857529347,-14.429742542555784,26.47754605128632,11.287280254076098,-11.250151224770889,14.042874428317463,5.4705103049066,-33.501365055710686,-13.143675801696961,13.803925806617439,-11.611930546433857,-7.1590511864638255,28.85411917184903,9.50480440847416,-14.240692204401707,13.931193666668364,10.191743663228545,-27.04208700499971,-9.290365360754897,12.667033397086659,-18.319786263114572,-18.27393631015258,14.253480394380542,-9.046957679486669,-36.18888561010311,-9.473978463203125,-12.471571364671721,-45.93626040467894,-22.168012632962217,5.666544901386703,-20.47382278087931,-17.739207843547238,14.65155258473896,-8.967285810456335,-34.676404255485636,-4.949465939446597,-3.063026908367557,-31.412036441918442,-4.426224557566178,26.042004081277213,2.688723602507288,7.484272336193443,41.610969571318115,17.829802154693237,-12.686023458385101,8.782255128570556,1.8299039870162943,-33.51744374313632,-9.694340879641079,19.51218347000779,-6.2200709769358635,-3.20996443932005,31.789973096369895,11.635997363834322,-11.457844009539183,18.64249519292826,15.516400866471573,-22.156150947351655,-4.3880537055655875,18.317822229475937,-10.17996555103997,-5.827287178546692,31.12545512238636,11.1880678358299,-14.396340165319039,12.13763549986958,8.547099202620288,-26.46079852495741,-6.980502706375056,15.123381642817355,-15.313031428072177,-13.459925736051057,22.25949692057334,3.43704286324496,-19.848415504387862,9.328440705780016,8.060655033959879,-25.589234517354186,-4.650061965938303,19.05138726740291,-10.70729466010678,-7.207995991247612,32.519074797102846,17.96665521470483,-2.488547010030844,26.824292534575115,22.412308434983203,-13.897769206562076,9.231735824273386,39.4428654800611,16.361169316685185,21.117494605844108,54.32797074226955,29.88612397931204,0.9321288402580805,23.70348249379465,13.538712051978429,-29.908905761737625,-15.716973308179227,7.56904313603175,-18.117542657452713,-13.094940583786835,22.458661399519865,1.7723951068531534,-22.71209516185969,7.082798900080583,6.776925499813322,-27.655717399249887,-7.574943267085857,18.413155963506753,-7.525224569408881,-4.0431349762988456,29.52265057317794,5.799174528935511,-22.152485150902308,3.5927433015803256,-1.5062104110826882,-39.39018571174007,-21.550782673531707,2.12752120147341,-23.831167414185387,-16.628555317503036,22.617593624677525,4.9001701138912654,-18.91515906410056,8.238677645089572,5.216855851529565,-27.200976503837154,-1.6410783971881528,28.767564924101066,3.7708342154340677,4.4053963811988535,34.977265122356975,12.15156825508069,-12.913448438764448,14.850327157319134,10.3023954605829,-29.442563903767418,-14.066942866998446,8.755928061271582,-19.19959159601523,-16.317987069668792,19.325875565786696,-0.2701400770407325,-23.771941589348007,6.2009389429422495,4.312487489441679,-31.16901099089,-10.002048909509025,16.206146178457846,-11.559150980391193,-9.903195184585396,22.91896589100353,0.21448137928608446,-25.222760124573334,2.38318521507745,-2.443715631395717,-40.44713764260956,-21.514395371972206,5.002590618799688,-18.582628322405114,-11.158210974339555,28.735598725778914,13.705188439698654,-7.061669093482302,22.529750269406463,19.049758226702124,-19.290195426941857,-1.335942953309143,25.40147747586151,1.608465118869276,6.948682915234218,42.015599918141035,19.41535283362927,-8.182312520785166,18.221876984741378,15.357582228025786,-19.575540746681405,0.36161107329612996,23.86205818610433,-5.684019111736481,-3.810894758881279,31.732256164425685,13.10164564384867,-8.9252620582451,22.32838100136278,22.69114921718218,-11.273675268378296,6.421136877810353,24.35577199336987,-13.925286925212022,-21.546637539268076,9.684665770973583,-5.956774842688512,-22.421154077209195,11.958551047294048,10.028488178279545,-30.94850547788659,-17.972336003861095,3.47189102134249,-24.74678896985268,-21.81461880015968,13.446644277450813,-7.081078219213188,-30.877222958140646,1.3983541622345363,4.491470501686167,-26.739179320851946,-4.569305566549829,21.085017356674292,-6.911059840772371,-4.365160592787321,31.677145825911246,13.831261457536272,-6.988608518253507,25.730817548915198,27.507679875455164,-5.821686351424878,11.756568305467496,31.66030035724568,-0.6310757196942802,-2.025515256547851,29.94662162241614,8.352708270711094,-17.35608576223787,10.15518600997959,8.995417248276862,-23.8434561719185,-1.2324028726829148,26.481545756961545,0.4735104631793856,3.0084959161925005,36.73099122305669,13.936274749749739,-13.69953535678539,12.492216282616054,8.717813537998254,-27.958469421638174,-10.330600195107273,9.884509900657113,-24.08213072888624,-26.902858724852678,5.102184331484866,-14.819863294219267,-36.94842863523373,-6.90691211281988,-8.955228882167882,-44.30295425954859,-24.10103745969282,2.9697177406110358,-20.51733103324735,-14.480329695803936,22.82003212975636,5.22586781090212,-17.116925589499672,13.47244707354507,14.169728459788981,-20.165983390517507,-3.066133331062609,17.59138864511765,-13.45988450180535,-11.604571032621779,26.70853996622443,12.137319970631811,-7.525514263907055,23.766564336101276,21.690160758481206,-15.965771317529839,0.6156971654950638,22.69303992490882,-5.73834002795491,-1.626963355236727,34.50061047020219,13.267176762502569,-13.677813759961703,13.244575258990558,12.95627683722215,-18.258633121624378,2.823981300652493,23.78265000470001,-11.509642480107537,-17.761041817644845,10.360566905268694,-13.59703114820805,-40.717074836538856,-13.463816558796932,-13.466275006277057,-44.40795737890397,-20.620196103884837,6.775699838062507,-19.695177316390733,-14.768712376157627,26.125544854433542,13.159451760811278,-7.441213790905918,19.320260746721033,11.362482905660235,-28.974021796643733,-9.52936040106581,18.968480876454272,-4.804150584036439,-1.4207403998860713,31.032086183862017,7.935157121282305,-18.09809070478316,9.305498519638862,6.230027152463436,-29.76455482807808,-10.722188618650703,15.270965001685436,-8.387149714833505,-1.3929867746525408,37.55013548245503,21.058708674691935,-1.82017098100739,27.40839595496264,28.213651563874887,-3.6347964534332586,17.08569338427626,39.78385101507,6.411049361362096,2.211829318369332,34.56536613865781,15.644015946889045,-8.964395417181155,15.762499427965398,7.5024490432613415,-34.059829009245014,-18.700932679149034,3.743481602031485,-25.620633233599733,-24.223689628414263,12.184344423439429,-2.457234780619336,-19.5367934827024,15.066846906763383,16.8395858157912,-17.60290139592875,-1.5007637405255014,17.15632775600667,-15.0504330690063,-13.646036811424521,24.15114405473961,9.610892929704038,-11.648897007621741,15.20786750240134,10.16954496355827,-26.309286476253803,-5.862487061964906,20.276212749954894,-8.079187222902378,-8.302326284837184,24.689869537361112,4.162027473816243,-20.151844607871407,8.570874525527465,5.806043639617053,-31.471509571313174,-14.234927417021249,8.002486346894948,-21.568416232081102,-18.667923134636112,19.15686852445417,2.6360912991376733,-20.487378360677585,5.823740434060381,0.3235226873341004,-38.10469020748036,-21.94863249534121,0.2365974501421091,-27.708864679787496,-23.986111368162604,14.030281906391105,-1.114391189580136,-21.77581518932725,8.853985917543119,9.57508084390573,-23.899811559725283,-6.513050343746498,13.160033297226335,-18.62664124559725,-15.665635752538686,25.116032013543915,11.688702578914725,-11.467061801388668,11.610773407325057,1.925524362421715,-37.26529565013335,-16.086249219472798,12.73966954732364,-11.896422205316862,-9.311219590880246,23.668282176887484,2.7235490282390646,-21.14163249206501,6.966849119356388,4.083666011313741,-31.046725653055287,-10.92869794055019,15.552069029616739,-9.122732426990513,-5.431468583613371,28.673731268334198,7.897401723296147,-16.89026970703027,12.267621477896183,12.337136243685977,-21.80604222009486,-3.1429171220732517,20.169178657921336,-9.26115288365699,-8.984250001619152,24.728130351981825,4.944749090642226,-18.350157859163538,11.539292247077752,10.14344024286702,-26.045274029443995,-8.631063426433428,14.283652051605355,-13.328721190223487,-10.409660438802923,22.93044771706426,0.1247153528703624,-25.709753110748746,4.2217767644410955,6.017770979612564,-26.477897901542583,-8.544717511869102,12.009886858851749,-17.936311429523762,-14.373772199819966,24.2733921916966,7.915540243054321,-15.807899122150806,12.065180201525546,11.023388387447206,-22.362690151696505,-1.3719908480134464,23.52546566528818,-5.9573512763571905,-5.555683779237466,29.907711282349617,13.376156737064843,-6.142084800565692,26.2162747990958,24.31080516608514,-14.930322807176042,-0.6217912886250883,20.995574709067302,-6.837890509046295,-4.7545007252111375,27.194621220754573,4.071208454798601,-20.61154704136623,10.43003593711427,12.0499844812452,-22.233162487992843,-6.377346941880521,15.07644308346095,-9.528269678117827,1.2137168423582292,45.400606500476,32.175440245024504,9.669046919154939,36.11098405314358,30.90561785942807,-8.265204845485652,6.56961294763863,27.640430282480825,-1.3421869098503194,1.8857671326376044,38.83578246106757,20.302311793970365,-4.370752264839276,22.393136371967195,18.03106737082957,-18.79693260455099,0.6355407820283663,26.20703137486338,-0.4588438455608639,1.0019875098745477,31.957531211098825,7.803183994173496,-18.527911501326695,9.783368469813635,7.984569071296909,-29.010267428671085,-14.04043247066276,7.283164890841657,-18.913771858639475,-11.445202576285746,29.43709962965969,13.439793739859304,-11.972901479767852,11.8016900346565,4.923534968676984,-35.25707973540283,-20.80647215703013,0.8084477084347572,-27.438016295439702,-23.63559344541394,14.697580818995103,-1.8653836363081826,-25.858805959889335,-0.14713349384599006,-6.337839830640594,-45.16611415010366,-26.141396351795848,3.003134026029782,-15.513748875335455,-1.7669045468431896,43.457616221075476,30.596370134634586,8.965943730757342,36.300629256561166,31.194720070926365,-8.600136157378877,4.081104699034642,20.93565135654867,-13.39324551631621,-15.648929410498333,18.475293482679852,2.871468958231528,-15.516805137734554,16.119051615807265,12.74498318406139,-28.205517203592244,-15.579104202130768,5.551305837783927,-21.065879878998746,-14.713698827387322,24.849030201569345,8.846822556107373,-12.390765888247742,18.27660170391876,16.39177182213212,-21.211374087106975,-5.399171582565563,15.70206679992605,-14.49747553530095,-13.385796097242597,21.4620726660479,2.394054736521774,-21.861978872502565,4.820111573187978,0.2968260047546547,-37.01331654603415,-18.072906756625052,9.416556646792685,-12.91236296745771,-6.581820923505209,29.32163501145882,8.504671953680463,-18.412844711123544,7.035748868806095,3.492115899116274,-32.42338435776766,-13.468343650423405,11.427136543613855,-16.04560056518858,-14.400089968769922,19.439820896660507,-1.718113928417445,-27.476377725632364,0.4561983128039415,-1.2048477054943127,-36.53724914987489,-18.04763692804117,5.549720407919471,-21.713968799211337,-16.77891196659092,22.103455327313632,6.687470138921464,-14.673552135334635,13.675422152102332,10.178533327474165,-26.47750941463076,-9.253476104983065,12.419781568744767,-18.690991640688186,-21.198315650081796,8.606785965058123,-13.980284633512818,-38.37964790624419,-7.612062291012208,-5.009273883637064,-35.19967906721562,-11.25725209221899,18.771561347378025,-2.3333334038583633,5.585764344722127,42.900354057605696,21.164684463032955,-8.316956073989939,16.014498466389288,14.30360937227141,-17.662562954076712,4.771967246385744,30.801262637833673,3.2014491995115364,4.721749170358961,38.92469481939379,19.105406191656748,-6.37061168642591,18.71137969538449,13.271011076906902,-24.96838206701109,-9.181136827875623,12.8003819567306,-15.99882347623794,-15.991949800340757,15.799951220476215,-4.822110366726248,-27.326080239300985,4.740860721720431,6.926392498090072,-27.018070867240674,-10.10656655520662,11.620823564769475,-16.975529854444783,-13.76685053856488,22.598108370212074,3.0606425686537335,-21.889828702992336,7.409116764122151,8.143386651745027,-24.46548600829971,-4.313555862804879,18.265385271233605,-13.249856555518024,-14.36215368472905,19.290091844158276,1.4936926908516206,-18.907791509647243,12.382365045738942,11.513441688366928,-23.747551709050008,-5.253268608613469,19.709112446564593,-4.595608927962578,2.056396090064032,40.79420463365797,24.983559194577282,3.0188898911564666,30.119139994381094,23.856964293455256,-17.771790675700796,-5.443242478975545,14.432035711650272,-14.456649738668013,-11.033644312551797,26.0392751577158,8.061343242657218,-16.59348329838246,8.854891227431668,2.902774123497407,-34.73617079675015,-14.95415780770735,12.180139961166935,-12.005791383206699,-6.961843693710048,28.772677546220486,8.891377251735523,-16.12837748942329,10.663201111390652,8.010358031806623,-26.155665945715494,-5.990486016933886,18.20073782825393,-11.460685718722791,-13.331569407970829,18.184601488329733,-0.8835414466769578,-22.475357507409225,7.64996538966377,5.736247760123134,-31.880946679336887,-16.466867799877228,6.385073802988115,-18.905718998969633,-12.096755669090854,26.492888756784232,7.767819867212674,-18.30995502006224,7.567413464509551,5.716864939570884,-25.461832382862234,-1.7858408273823887,23.68241089878366,-4.763250340749947,-1.9385271408932319,35.34062139740715,18.779866911026495,-6.681916770400571,11.537576857350382,-4.691286409186334,-49.872101213874146,-33.81428881527836,-6.9775078618879665,-30.360635991928525,-27.052195667166753,6.3181325002874456,-12.900903938605586,-35.65035795595604,-6.728671229707718,-7.248032771789988,-39.435567716585226,-15.74189641205535,15.077901845248409,-6.940836131379973,-2.6170439895944693,32.46655381066094,13.873550749285059,-8.903027148483398,20.139460811565364,17.94601348874084,-18.516848790544344,-1.440094915335731,21.694571560202196,-3.834845817330871,3.8562877062340872,45.04262801010307,31.777319777350733,11.458472496859578,37.63600332554237,29.673795168692244,-11.651936667541007,1.1686603670778872,20.645280841552825,-7.487204507753313,-1.9794297112479757,38.07545045142057,24.096277436654773,2.637230176455117,29.34676620425951,23.363262517954908,-16.524273281386826,-2.121861396904235,17.41679719182146,-15.6607295507966,-18.401279663992817,13.752107481141165,-5.7689328385804295,-28.615659029660108,-0.8099171118362527,-7.258620805752804,-49.06115866450689,-34.85351273727315,-11.073231521232444,-34.427569028376524,-26.022202579546644,12.426476451970712,-6.0918661031668115,-28.872196371338653,2.8372697372089206,6.82238903515392,-21.93751955747271,0.16464641162094829,24.272658005265367,-3.1251467342537183,0.6643081825993304,36.437679823380996,15.761296032284685,-12.431184743556392,11.366170809738248,9.326960885663027,-21.20357464254333,2.610541550373366,28.34404904465874,-0.405917179598859,2.1615669500676997,41.89058260612825,30.390904585581307,12.658499020894087,42.45379273364346,37.90280842398155,-0.7877298784763997,15.29741430403526,36.612960573990804,6.51166329572564,7.22687101688199,40.250256415618466,17.948304176667726,-11.625298303857212,7.622969139344875,-1.839617816038464,-38.04710301412646,-16.2959305229909,9.720428525801335,-19.25149774838117,-21.64635470643935,8.871328538657648,-9.882237177918059,-29.164614761906577,4.1578113643798815,5.9243320515609,-27.136419820848662,-7.768906484096878,15.61711919059192,-13.416787262736934,-12.581269404188363,21.39062864916039,2.0797676322777683,-21.708552803576325,5.373264871402714,1.3273932618073712,-33.97302556812521,-12.140252832884297,17.125923188441956,-3.175961618235073,6.643352725136744,45.47391038625883,27.101167825608243,2.74648356473923,27.933206104206697,21.289883609675712,-17.52123804610013,-2.247455136057967,18.236587057213182,-10.640860627244333,-8.221601982463767,25.838800534068195,5.464219777457615,-19.738019234207773,6.370486765638162,3.2663105028340986,-30.566149610339586,-9.461492344271008,16.20639280577724,-10.96041695185847,-9.915029544788897,21.831706183596786,-0.644958820160662,-25.848574821946027,2.3164924125637114,0.3718789669996134,-33.42144641779055,-12.014542334300543,13.684678073161194,-13.379217102791399,-12.26705928253486,17.90280521307045,-5.839263272674989,-28.85725583227597,4.680229340857185,9.697704803872789,-19.358091908409428,0.2835176421912262,19.927708413489476,-11.534470196991787,-9.841722973806485,25.935369823862125,8.151679189969414,-15.034835999794414,11.85558499853077,8.83948823337781,-24.720556897986846,-3.7509949168850074,20.29010978946348,-8.99965563345312,-8.200249704903444,26.46921287148647,9.489243953729028,-10.761756619079875,17.95085422394505,12.23314227799776,-26.33862082272327,-8.843615298894992,14.491393497508643,-12.775163259966334,-10.804524581477917,19.92324699600789,-3.0469414069612686,-25.417857023834678,5.984511959017855,5.670911839640765,-28.35457636190173,-10.562787693615299,10.678659360799614,-16.401582231774196,-10.150534259606676,27.337340632640796,8.75661828243367,-15.26449547891082,11.471738061674897,7.890546639872706,-28.00285613076806,-12.258640209506389,4.72229548375077,-29.495356354005114,-28.151138758965015,12.426145529283092,4.309329933038276,-6.52935106126502,30.545024857492784,30.956441706596507,-4.636657881519184,11.81618642278709,29.812103868266096,-4.667808583895415,-7.458915563903684,22.804903780470816,1.4768015087016177,-20.41584173608259,8.811281924528863,4.184186857048438,-35.0793949334773,-22.50147189961064,-5.456094118633536,-34.80086440786869,-28.481820298590655,11.673492819379,-2.227858153559632,-21.14722017372863,10.005917374974882,9.794655023375583,-23.09147817940643,-2.8110467929334266,21.689153264510768,-2.8730075642006803,5.615473131943555,44.43341364304807,23.338883337603086,-7.680571311925109,9.667554143233474,-2.140548673799528,-40.154629892343685,-19.016243573436533,7.3320937215213915,-17.025754676284357,-9.548345198572632,29.61493340752723,14.735881189418341,-3.874392216837486,27.006988844282205,26.01332702186045,-5.549656770837554,17.26008475816522,42.04464386604889,12.639818966185242,9.926265959040926,35.59625280835457,7.16261164259015,-22.667640202209153,1.7599538488787605,-1.9685327286291114,-36.725082525347254,-18.534957174226168,1.879201187648091,-30.07756695522577,-30.83093014748857,2.5727025907663386,-14.033065350531722,-29.66751141183817,8.433701200108025,14.254657871642767,-15.340552984747358,4.540375108675818,24.220579112814193,-7.159100901229053,-4.694169695204026,30.91136429822696,12.637430397601268,-10.182721365973247,14.835209362240771,6.363105889997286,-33.16591824846789,-17.368140031641357,3.4770292973312182,-24.09313598550755,-18.322037311880564,20.52982536739669,6.751379877621699,-10.691363154585297,20.43550689044368,17.219026964017594,-20.31833286138562,-5.166477165734749,13.868018264660485,-15.9903441735422,-11.425091269349636,26.760102954908696,10.150135352363833,-12.666687612693565,11.627900930312416,2.3702772982261546,-36.871139409177246,-19.493052540615956,2.1188698288701078,-26.597373900643962,-23.46492809844112,11.554935312253233,-5.503605495944495,-24.270264977223192,6.4794171081167935,4.882776630336473,-27.12458560057319,-5.615344925379993,16.24849361926669,-15.936126890982393,-19.336121002106587,8.993355256599411,-11.796022204144922,-30.81023544474183,1.3115342901092504,-0.594573896961121,-36.205822482872705,-18.25074138448816,5.029495153310746,-19.43003265935714,-11.624285776481397,25.23629250783442,5.398100963911055,-17.549991885528712,12.106796517477267,11.927743922394326,-18.570386420524123,3.7284462767947684,25.50551698908148,-5.621072579293882,-4.740386673985937,28.27096324267858,8.41606683542501,-13.530145768364642,14.349095286331004,10.105582637371208,-24.751038702800553,-5.759691015953745,16.596523298118143,-10.517178772407778,-6.9897555685580315,25.962713883959598,5.342216213370984,-16.53599372553626,13.966107682309039,13.98942413131994,-18.468098886691763,-0.38127898599755916,17.75837548903448,-14.736839775666239,-13.024873149999644,21.871411791612765,2.6204800451963663,-20.095045977662572,8.119287292667037,6.250559799421916,-24.2886027682017,-0.2037960871469,24.22781701300196,-4.5901218404708075,-2.616572191939005,31.204676963472927,14.107754528697356,-3.2792483941199424,27.53280599748436,22.81039780907785,-13.31617243709139,6.005720909801484,29.63330350396445,3.916458115029558,8.063409306662098,39.24765541227853,15.972294239637966,-5.800498577985813,27.088809422630092,28.874478908200626,-2.176136296162298,18.127867511665926,38.222698446630396,6.364391662272848,7.255758566902604,39.970930366709126,19.80124575390029,1.2689333824228166,37.33454632205094,41.42248824609361,11.422130806930006,28.965427951973663,40.462186188018904,-2.4411133766212068,-10.504836353550985,18.38742539182796,0.08816852901640893,-16.79311332061459,14.877713751828203,11.446473286380439,-22.86574618728074,-2.4393485626724196,20.361720601110175,-7.627513066249662,-5.555096376685463,25.435521199440586,3.5356437180671776,-18.959418649161037,8.190094747653923,1.6368575053261996,-35.139973885498456,-15.453944914470233,8.261430391413713,-18.09972305451005,-13.086489964992982,20.730526982190455,-0.4889023704749871,-22.511995206008677,6.1605298072125105,0.3595197007273727,-37.009366794704455,-18.759688280062804,3.3784836571620938,-23.038695835285015,-16.787913071680855,17.90328612275919,-2.3120867301639816,-22.387437531802505,9.582744218488584,9.76293347676396,-21.14218948071965,-1.5137775417290378,16.304186815022526,-15.865550124288522,-13.107488300046414,22.87331322685558,7.384194619746031,-10.297024041626045,18.81240809714513,12.876695032709739,-23.609818915306384,-5.213425648708471,14.90495123840192,-16.04853589478592,-14.477941184328571,19.242857476349766,2.261038838458333,-13.528207275590933,19.639296924597616,15.573687515356495,-22.030845782074323,-6.307277038523168,10.781127421634375,-21.67969532425245,-21.070863545790573,8.823180133868332,-13.806983812236279,-33.16639462225427,-0.21651969835646057,-1.0024259069836514,-33.32679899895354,-13.648553239883878,6.349535276635929,-21.951103636550265,-16.2229074740156,18.271117392413416,-2.9354506208171145,-25.671903816752582,2.6005349802644115,-0.2403261044981022,-31.216474372274973,-7.041087495712645,17.464188868177835,-10.394176747795617,-7.448178601490202,23.794661616175524,-0.17298948069057296,-24.471034970132408,2.6592228774537503,-2.637389951277763,-36.70544202795938,-15.261710443305567,7.255619144069279,-20.214763196057802,-15.147346745177318,17.412310686723522,-5.2627480840583285,-27.011205853612616,3.540089708479641,3.527910480054297,-24.126734181462535,0.5812155543501145,21.48844458214674,-10.079885057377608,-8.40439184266979,24.064154298094916,3.7130080620243344,-17.847925517431957,8.047135659035625,-0.772625355502127,-38.62275711856893,-20.508917315387677,0.033547078253682194,-28.48937443203546,-23.29420687795592,11.87236242797527,-7.76568331522043,-28.9332624770543,-0.08053777280063912,-2.6883525541566327,-30.85664354586989,-1.0687343437062573,29.1582209398289,6.221686118825058,12.342830980762736,43.88214562464085,19.56056310436375,-4.813919820167175,20.438488581230324,12.52622108275075,-23.02790274721543,-3.211558681010292,17.0700597509824,-13.014979458117018,-11.220303479663377,19.946167994204426,-0.2573407524992266,-18.038908859192283,15.973494085011993,17.64709188739259,-11.750000841149388,10.00517963700934,29.134199919612826,-4.751453624984212,-5.915780574914116,25.34250899869173,5.906652929681947,-12.79712120324752,15.809255680185831,6.8587403720916775,-32.46484580735567,-14.839727340826691,5.499781419250809,-23.937996116235123,-21.581205639566285,8.847252292826944,-11.900761194278422,-26.467791764403565,11.597441004493207,13.582128608677499,-17.830998181793326,1.5373275272848517,20.036549276676052,-9.485583038920305,-4.08285990855873,29.91578578494974,9.251483593277198,-10.408197851788001,20.890554327916274,18.26309400492091,-15.323937516376807,3.174446335773373,20.048521653670644,-12.451944464368491,-8.408116492736212,27.51088923518912,9.936337459575512,-8.605226851442431,19.717666915833483,12.182103030704916,-21.97077279206097,3.4304657245965533,31.71837773015658,8.942094761754523,13.786879395882316,39.0199238125564,6.080555532234664,-22.896470824049103,3.5788077874423294,0.2061951998122833,-30.33067181312156,-7.9035323458069335,12.29618132408703,-17.156893587225603,-12.958532439989353,19.529143476141748,-1.089468779423239,-19.69616352885816,11.215171502326895,6.291275711469622,-30.48715606121234,-14.552161970092843,3.604543670189321,-22.82391883827747,-12.283044697800458,26.12021714645128,6.815150248412412,-14.60666431847109,12.61799871062269,4.6084857365191105,-34.333779940946705,-21.02131833526637,-8.249998285062993,-40.4814687831439,-31.251024061809467,11.258331084452289,-0.7758651645886232,-16.106774283557918,11.788629029746792,1.733656137616645,-35.061517789702926,-13.346843552886352,11.795134695564109,-8.753654440723443,4.884829639467343,43.364907311358756,24.58471693135062,4.633602810925965,32.04038292942637,24.262719059493886,-12.975132728805313,2.37873853106613,16.573872330718693,-16.911826301669798,-13.69481756610413,19.834263165790876,0.08920301294729605,-16.400943475477806,20.585969787777334,25.784355315232336,1.0579484753286756,24.89749779022663,40.029187298442075,2.4716386618557635,3.4277586208948545,38.68100347404403,22.314435640168778,5.934203076910971,33.83738145516774,22.777753979339433,-15.72159161630043,2.9927208100901623,22.122869355705713,-6.998903706244844,-2.182167722614758,29.553642463237498,7.70530134484307,-11.862446961419518,17.30184759252864,11.387679225967986,-22.501807781780194,-0.6956958753435796,21.888565826993663,-4.60482758844978,0.7353556882704213,30.175503764856995,2.4679591034156125,-23.09282476084593,4.1035393239915425,-0.0498988772806328,-30.379113238133627,-6.0482845725615935,15.28020400911377,-14.312527682014498,-9.752761011550145,23.161534433198774,3.0208709114795447,-14.789854533568716,15.423959582208289,10.492408322017997,-21.520564309300042,0.4318812764120352,20.233625388761197,-9.642195330506581,-7.631579857056336,20.296017655579448,-3.6016485597264314,-22.371741658184863,9.172101211609483,5.652220718070728,-27.490254993817967,-8.451710557544468,9.425203778448427,-18.664961216500036,-9.790889334336612,25.723771010901743,3.8913909657391272,-17.532571243255937,11.527149347432589,8.080814758050131,-22.586646032702177,-1.7756770872707754,13.091874126230557,-22.06081752320473,-19.811502765683187,12.87121413403403,-7.608692496679886,-26.97308946027094,1.2230018023437577,-4.257145637972047,-34.32824383877771,-9.736060186180747,11.084775563592698,-18.053554751462503,-13.389501253788627,18.101549438244852,-2.871056466439347,-19.926870284899383,11.401214988624117,6.000311932377469,-29.84507404840763,-14.514530533996712,-0.7528711744017049,-30.712078607366532,-19.854717744047417,19.800232598604374,1.7049468458433896,-17.707153218343166,11.363829717495888,8.0671876687281,-19.087576698536093,7.8721788754060125,28.62255760211196,-1.3632992486284152,4.536226305940979,37.396928873008505,14.940675737377966,-6.699368814833542,17.46309863363092,5.918311639568454,-30.0342057451216,-9.873356468679596,8.857674971097223,-18.849807807622106,-9.671595423319998,27.18375535129663,11.218899979075626,-0.8019990254488849,34.93697150721817,32.924080217835524,0.4966987819219373,17.920778733833536,29.19790893897886,-8.02156613535736,-6.598043483365915,24.748115253412486,3.153201549733863,-14.626441239959288,15.909042798347201,9.000117838061778,-26.031327430753453,-6.993468656606478,8.700445052063069,-23.52527758986026,-17.848055596894042,17.07695068330473,-0.6484151678051564,-15.365593026655999,16.018503365280278,9.693855906505522,-23.254627171993324,-1.2888282857945406,17.950371501717626,-11.8064533964197,-8.306047918694782,20.78049235748902,-1.237538476959422,-15.906250120789558,18.58928443978241,14.315524864302834,-21.648803877904648,-7.341579051722247,4.031824317361409,-28.39757249886646,-19.112579015277074,20.710669459350026,6.208103560895372,-7.845048798315043,23.214049434118984,16.924559950044458,-14.838745958064253,8.293618739005503,25.44356064608431,-8.716052719163597,-7.423185643750525,22.338653693985584,1.3913823454538896,-15.177096078760881,11.90490919986993,-0.7753613536035502,-38.01162946698943,-17.04635346247511,3.7055791657054056,-22.020703197597722,-13.448296666821188,19.064795445410343,-1.994975813174925,-18.015916684322164,12.401040145937348,2.7433942032039145,-35.5425943531546,-17.72096164694772,1.4483731217095048,-22.17505533886867,-7.587289668412781,30.161408935460884,8.403297094093183,-12.576052646316816,14.404712250789116,6.395044539365818,-26.42984982055734,-4.365586769992696,13.510248828852987,-16.78239841918176,-10.861164065423855,20.293480803880122,-2.336409409151079,-18.831800139316574,12.884160948949297,6.800875879158426,-26.174538098782865,-5.229823627899462,13.176020802693438,-13.335132807226303,-3.3682097763426864,28.82488956716331,2.8294772553529928,-20.552045198682098,5.450991337444519,-1.8987358484942654,-33.04177478378689,-9.75473723006527,7.996021323978282,-23.61677135054343,-18.147136600002334,15.804218973861243,-2.143632401854033,-15.34800039554415,16.642989824524207,7.674270608310287,-28.493586493538793,-7.932102252881423,10.689279419114975,-17.7111348280421,-10.189861853364864,22.086833425488273,2.0809838166809307,-10.492711747155656,